20.00000 1328.750
20.01000 1323.933
20.02000 1318.428
20.03000 1311.627
20.04000 1299.641
20.05000 1287.114
20.06000 1277.796
20.07000 1291.605
20.08000 1303.381
20.09000 1310.883
20.10000 1310.249
20.11000 1309.419
20.12000 1304.760
20.13000 1295.119
20.14000 1285.464
20.15000 1280.445
20.16000 1279.407
20.17000 1278.489
20.18000 1284.484
20.19000 1294.501
20.20000 1304.100
20.21000 1304.799
20.22000 1301.916
20.23000 1299.223
20.24000 1290.648
20.25000 1281.385
20.26000 1274.071
20.27000 1279.948
20.28000 1288.294
20.29000 1292.236
20.30000 1276.578
20.31000 1258.576
20.32000 1244.811
20.33000 1265.410
20.34000 1283.526
20.35000 1290.158
20.36000 1272.606
20.37000 1254.280
20.38000 1244.849
20.39000 1248.299
20.40000 1251.855
20.41000 1259.469
20.42000 1270.990
20.43000 1282.374
20.44000 1281.739
20.45000 1273.345
20.46000 1264.976
20.47000 1257.247
20.48000 1249.804
20.49000 1242.773
20.50000 1245.165
20.51000 1250.024
20.52000 1255.962
20.53000 1270.181
20.54000 1286.135
20.55000 1297.386
20.56000 1285.280
20.57000 1269.991
20.58000 1257.997
20.59000 1257.003
20.60000 1256.924
20.61000 1255.144
20.62000 1249.401
20.63000 1243.496
20.64000 1240.877
20.65000 1243.543
20.66000 1246.279
20.67000 1247.702
20.68000 1215.813
20.69000 1194.422
20.70000 1196.583
20.71000 1215.640
20.72000 1234.249
20.73000 1237.449
20.74000 1233.063
20.75000 1228.879
20.76000 1229.072
20.77000 1230.636
20.78000 1232.281
20.79000 1234.632
20.80000 1237.147
20.81000 1237.946
20.82000 1229.196
20.83000 1218.974
20.84000 1210.759
20.85000 1209.228
20.86000 1208.501
20.87000 1211.771
20.88000 1225.335
20.89000 1239.420
20.90000 1244.328
20.91000 1232.877
20.92000 1221.105
20.93000 1214.649
20.94000 1199.751
20.95000 1189.535
20.96000 1194.535
20.97000 1211.700
20.98000 1228.677
20.99000 1236.940
21.00000 1240.456
21.01000 1243.841
21.02000 1230.801
21.03000 1212.751
21.04000 1196.170
21.05000 1194.435
21.06000 1196.557
21.07000 1199.157
21.08000 1204.750
21.09000 1210.863
21.10000 1215.886
21.11000 1214.634
21.12000 1213.040
21.13000 1208.723
21.14000 1196.650
21.15000 1184.101
21.16000 1177.409
21.17000 1182.277
21.18000 1187.455
21.19000 1190.438
21.20000 1201.083
21.21000 1208.560
21.22000 1209.838
21.23000 1205.575
21.24000 1201.367
21.25000 1200.778
21.26000 1202.374
21.27000 1203.923
21.28000 1213.696
21.29000 1226.217
21.30000 1237.017
21.31000 1227.599
21.32000 1212.352
21.33000 1197.684
21.34000 1187.119
21.35000 1177.354
21.36000 1169.162
21.37000 1169.609
21.38000 1170.884
21.39000 1172.385
21.40000 1174.602
21.41000 1176.871
21.42000 1178.124
21.43000 1177.158
21.44000 1176.115
21.45000 1175.485
21.46000 1200.480
21.47000 1218.451
21.48000 1217.329
21.49000 1197.032
21.50000 1176.841
21.51000 1167.807
21.52000 1166.247
21.53000 1164.723
21.54000 1171.110
21.55000 1180.720
21.56000 1189.274
21.57000 1183.232
21.58000 1172.525
21.59000 1163.023
21.60000 1163.225
21.61000 1165.540
21.62000 1167.520
21.63000 1159.992
21.64000 1152.501
21.65000 1146.950
21.66000 1148.176
21.67000 1149.984
21.68000 1155.326
21.69000 1169.201
21.70000 1183.452
21.71000 1192.415
21.72000 1172.100
21.73000 1157.078
21.74000 1151.149
21.75000 1155.471
21.76000 1159.793
21.77000 1162.353
21.78000 1163.599
21.79000 1164.824
21.80000 1163.506
21.81000 1160.977
21.82000 1158.902
21.83000 1164.298
21.84000 1172.337
21.85000 1179.714
21.86000 1180.980
21.87000 1180.763
21.88000 1180.575
21.89000 1165.382
21.90000 1150.343
21.91000 1136.492
21.92000 1127.250
21.93000 1118.468
21.94000 1113.724
21.95000 1119.757
21.96000 1126.376
21.97000 1130.704
21.98000 1126.618
21.99000 1123.479
22.00000 1119.148
22.01000 1113.312
22.02000 1107.498
22.03000 1114.256
22.04000 1131.471
22.05000 1148.479
22.06000 1149.249
22.07000 1141.054
22.08000 1133.088
22.09000 1129.710
22.10000 1128.126
22.11000 1127.077
22.12000 1131.720
22.13000 1137.899
22.14000 1143.369
22.15000 1128.187
22.16000 1111.820
22.17000 1100.773
22.18000 1112.682
22.19000 1127.231
22.20000 1136.159
22.21000 1128.490
22.22000 1119.733
22.23000 1113.795
22.24000 1116.377
22.25000 1118.491
22.26000 1122.541
22.27000 1129.311
22.28000 1136.097
22.29000 1135.184
22.30000 1127.098
22.31000 1119.076
22.32000 1114.211
22.33000 1111.376
22.34000 1108.702
22.35000 1110.049
22.36000 1113.136
22.37000 1115.264
22.38000 1105.470
22.39000 1092.110
22.40000 1080.097
22.41000 1084.122
22.42000 1090.497
22.43000 1095.724
22.44000 1095.424
22.45000 1094.398
22.46000 1094.107
22.47000 1096.218
22.48000 1098.515
22.49000 1100.127
22.50000 1107.206
22.51000 1112.723
22.52000 1116.688
22.53000 1118.234
22.54000 1119.752
22.55000 1118.701
22.56000 1114.959
22.57000 1111.234
22.58000 1103.567
22.59000 1093.270
22.60000 1083.365
22.61000 1085.907
22.62000 1094.403
22.63000 1102.424
22.64000 1103.477
22.65000 1102.221
22.66000 1101.076
22.67000 1098.654
22.68000 1096.252
22.69000 1093.788
22.70000 1091.000
22.71000 1088.164
22.72000 1086.804
22.73000 1090.801
22.74000 1095.284
22.75000 1098.530
22.76000 1092.583
22.77000 1087.680
22.78000 1086.738
22.79000 1092.653
22.80000 1098.689
22.81000 1096.992
22.82000 1086.218
22.83000 1075.454
22.84000 1071.883
22.85000 1073.873
22.86000 1075.789
22.87000 1074.571
22.88000 1071.693
22.89000 1069.072
22.90000 1070.984
22.91000 1074.557
22.92000 1077.859
22.93000 1084.264
22.94000 1090.714
22.95000 1094.563
22.96000 1082.675
22.97000 1068.142
22.98000 1057.072
22.99000 1059.951
23.00000 1064.298
23.01000 1067.539
23.02000 1060.985
23.03000 1055.438
23.04000 1055.163
23.05000 1064.996
23.06000 1075.080
23.07000 1078.533
23.08000 1073.295
23.09000 1068.023
23.10000 1064.258
23.11000 1061.803
23.12000 1059.443
23.13000 1062.730
23.14000 1069.326
23.15000 1075.480
23.16000 1072.104
23.17000 1064.863
23.18000 1058.093
23.19000 1055.544
23.20000 1054.302
23.21000 1053.464
23.22000 1055.382
23.23000 1057.820
23.24000 1057.333
23.25000 1043.729
23.26000 1028.540
23.27000 1016.904
23.28000 1031.706
23.29000 1044.850
23.30000 1053.426
23.31000 1052.315
23.32000 1050.887
23.33000 1048.473
23.34000 1044.619
23.35000 1040.752
23.36000 1038.655
23.37000 1038.275
23.38000 1037.956
23.39000 1043.222
23.40000 1052.117
23.41000 1060.465
23.42000 1053.959
23.43000 1040.795
23.44000 1028.351
23.45000 1016.318
23.46000 1005.383
23.47000 997.272
23.48000 1011.063
23.49000 1029.478
23.50000 1045.060
23.51000 1046.454
23.52000 1045.898
23.53000 1045.461
23.54000 1028.632
23.55000 1014.083
23.56000 1004.893
23.57000 1008.277
23.58000 1012.183
23.59000 1017.366
23.60000 1024.618
23.61000 1031.899
23.62000 1035.700
23.63000 1027.794
23.64000 1022.450
23.65000 1018.096
23.66000 1014.459
23.67000 1011.001
23.68000 1013.833
23.69000 1019.785
23.70000 1025.466
23.71000 1020.087
23.72000 1011.561
23.73000 1003.512
23.74000 999.692
23.75000 996.868
23.76000 994.384
23.77000 993.813
23.78000 993.539
23.79000 993.319
23.80000 991.200
23.81000 989.332
23.82000 989.179
23.83000 993.469
23.84000 997.987
23.85000 1006.570
23.86000 1022.452
23.87000 1038.480
23.88000 1047.303
23.89000 1034.470
23.90000 1025.604
23.91000 1020.139
23.92000 1017.415
23.93000 1014.487
23.94000 1001.918
23.95000 984.056
23.96000 966.854
23.97000 975.963
23.98000 993.907
23.99000 1010.373
24.00000 1011.756
24.01000 1009.189
24.02000 1006.725
24.03000 1004.905
24.04000 1003.199
24.05000 1001.794
24.06000 987.212
24.07000 974.023
24.08000 966.675
24.09000 976.082
24.10000 986.532
24.11000 994.713
24.12000 998.387
24.13000 1001.936
24.14000 1003.988
24.15000 982.448
24.16000 967.264
24.17000 964.389
24.18000 972.612
24.19000 980.798
24.20000 986.503
24.21000 990.699
24.22000 994.772
24.23000 1001.151
24.24000 1008.123
24.25000 1014.035
24.26000 1007.351
24.27000 997.009
24.28000 987.716
24.29000 985.918
24.30000 985.593
24.31000 985.320
24.32000 985.045
24.33000 984.815
24.34000 984.955
24.35000 986.268
24.36000 987.667
24.37000 988.682
24.38000 988.853
24.39000 988.994
24.40000 989.079
24.41000 992.933
24.42000 995.708
24.43000 992.466
24.44000 983.132
24.45000 973.849
24.46000 970.054
24.47000 969.964
24.48000 969.876
24.49000 969.203
24.50000 968.297
24.51000 968.046
24.52000 976.950
24.53000 988.802
24.54000 998.942
24.55000 995.173
24.56000 988.351
24.57000 982.508
24.58000 972.362
24.59000 963.276
24.60000 955.735
24.61000 953.629
24.62000 951.996
24.63000 950.623
24.64000 949.881
24.65000 949.168
24.66000 948.718
24.67000 945.303
24.68000 942.796
24.69000 945.124
24.70000 952.947
24.71000 960.751
24.72000 963.493
24.73000 962.433
24.74000 961.390
24.75000 952.991
24.76000 941.211
24.77000 930.171
24.78000 931.488
24.79000 937.207
24.80000 942.229
24.81000 940.758
24.82000 937.699
24.83000 935.032
24.84000 934.601
24.85000 934.543
24.86000 936.408
24.87000 945.788
24.88000 955.927
24.89000 960.341
24.90000 949.363
24.91000 937.537
24.92000 929.782
24.93000 941.641
24.94000 950.687
24.95000 958.159
24.96000 963.629
24.97000 969.074
24.98000 965.170
24.99000 953.426
25.00000 941.821
25.01000 950.920
25.02000 971.292
25.03000 990.346
25.04000 982.597
25.05000 964.288
25.06000 946.847
25.07000 938.749
25.08000 933.190
25.09000 928.262
25.10000 929.183
25.11000 930.906
25.12000 932.608
25.13000 934.221
25.14000 935.825
25.15000 937.757
25.16000 940.665
25.17000 943.638
25.18000 945.658
25.19000 946.131
25.20000 946.449
25.21000 947.990
25.22000 951.264
25.23000 954.549
25.24000 951.080
25.25000 941.268
25.26000 931.530
25.27000 928.590
25.28000 929.916
25.29000 930.943
25.30000 924.366
25.31000 914.477
25.32000 905.625
25.33000 909.810
25.34000 917.924
25.35000 925.228
25.36000 927.350
25.37000 928.283
25.38000 928.802
25.39000 927.323
25.40000 925.578
25.41000 924.732
25.42000 926.846
25.43000 929.193
25.44000 930.843
25.45000 929.920
25.46000 929.144
25.47000 930.791
25.48000 936.247
25.49000 941.750
25.50000 937.307
25.51000 922.362
25.52000 907.481
25.53000 905.772
25.54000 913.220
25.55000 920.411
25.56000 919.256
25.57000 914.080
25.58000 909.175
25.59000 908.310
25.60000 908.793
25.61000 909.233
25.62000 910.232
25.63000 911.231
25.64000 914.302
25.65000 928.621
25.66000 944.631
25.67000 953.452
25.68000 936.015
25.69000 916.166
25.70000 901.765
25.71000 913.335
25.72000 923.194
25.73000 923.719
25.74000 907.963
25.75000 891.911
25.76000 886.264
25.77000 892.929
25.78000 899.602
25.79000 907.787
25.80000 917.103
25.81000 926.207
25.82000 926.131
25.83000 921.162
25.84000 916.250
25.85000 912.340
25.86000 908.800
25.87000 905.527
25.88000 902.620
25.89000 900.094
25.90000 898.283
25.91000 900.836
25.92000 904.129
25.93000 904.640
25.94000 893.862
25.95000 881.885
25.96000 872.938
25.97000 902.568
25.98000 927.439
25.99000 934.138
26.00000 905.740
26.01000 876.457
26.02000 865.509
26.03000 878.781
26.04000 892.159
26.05000 893.467
26.06000 884.258
26.07000 875.211
26.08000 876.146
26.09000 882.973
26.10000 889.773
26.11000 895.961
26.12000 901.899
26.13000 907.456
26.14000 899.938
26.15000 889.754
26.16000 881.283
26.17000 884.616
26.18000 890.193
26.19000 892.985
26.20000 883.185
26.21000 871.850
26.22000 863.150
26.23000 868.455
26.24000 873.429
26.25000 877.151
26.26000 878.194
26.27000 879.149
26.28000 880.942
26.29000 883.966
26.30000 887.002
26.31000 892.009
26.32000 898.947
26.33000 905.718
26.34000 896.827
26.35000 877.675
26.36000 859.136
26.37000 857.486
26.38000 863.463
26.39000 869.117
26.40000 874.815
26.41000 880.065
26.42000 884.380
26.43000 881.385
26.44000 876.833
26.45000 874.422
26.46000 882.821
26.47000 892.719
26.48000 900.512
26.49000 891.320
26.50000 882.822
26.51000 876.636
26.52000 875.911
26.53000 875.417
26.54000 874.026
26.55000 871.170
26.56000 868.294
26.57000 866.786
26.58000 853.046
26.59000 843.803
26.60000 845.753
26.61000 855.856
26.62000 865.624
26.63000 863.361
26.64000 855.091
26.65000 847.191
26.66000 852.080
26.67000 860.738
26.68000 869.034
26.69000 874.076
26.70000 878.346
26.71000 882.846
26.72000 888.646
26.73000 894.650
26.74000 899.491
26.75000 881.236
26.76000 864.593
26.77000 853.090
26.78000 855.014
26.79000 857.638
26.80000 860.170
26.81000 862.537
26.82000 864.900
26.83000 866.206
26.84000 866.491
26.85000 866.704
26.86000 873.970
26.87000 886.964
26.88000 899.465
26.89000 887.974
26.90000 863.219
26.91000 839.365
26.92000 845.656
26.93000 862.413
26.94000 876.758
26.95000 866.193
26.96000 849.059
26.97000 834.762
26.98000 838.538
26.99000 845.507
27.00000 851.250
27.01000 864.801
27.02000 876.670
27.03000 883.033
27.04000 873.485
27.05000 862.933
27.06000 855.817
27.07000 855.582
27.08000 855.538
27.09000 855.513
27.10000 852.576
27.11000 850.505
27.12000 851.221
27.13000 854.469
27.14000 857.659
27.15000 856.726
27.16000 853.268
27.17000 849.910
27.18000 847.860
27.19000 846.441
27.20000 844.971
27.21000 842.903
27.22000 840.660
27.23000 839.231
27.24000 843.673
27.25000 849.278
27.26000 853.993
27.27000 855.567
27.28000 856.545
27.29000 855.043
27.30000 845.610
27.31000 835.582
27.32000 831.087
27.33000 838.846
27.34000 847.051
27.35000 852.028
27.36000 844.524
27.37000 839.075
27.38000 836.727
27.39000 837.546
27.40000 838.431
27.41000 846.590
27.42000 859.699
27.43000 872.518
27.44000 872.029
27.45000 865.586
27.46000 859.221
27.47000 853.957
27.48000 849.050
27.49000 844.148
27.50000 839.292
27.51000 834.446
27.52000 830.290
27.53000 834.341
27.54000 838.768
27.55000 842.063
27.56000 841.343
27.57000 840.269
27.58000 837.560
27.59000 830.847
27.60000 823.952
27.61000 819.590
27.62000 810.187
27.63000 803.311
27.64000 810.059
27.65000 832.422
27.66000 854.722
27.67000 860.054
27.68000 852.537
27.69000 845.143
27.70000 837.316
27.71000 829.523
27.72000 822.472
27.73000 827.984
27.74000 838.004
27.75000 846.815
27.76000 844.239
27.77000 838.858
27.78000 834.160
27.79000 839.600
27.80000 845.677
27.81000 847.730
27.82000 833.941
27.83000 818.536
27.84000 811.972
27.85000 829.350
27.86000 848.067
27.87000 860.373
27.88000 841.601
27.89000 827.254
27.90000 820.750
27.91000 824.290
27.92000 827.851
27.93000 821.852
27.94000 807.775
27.95000 793.858
27.96000 803.445
27.97000 825.958
27.98000 847.202
27.99000 842.276
28.00000 826.966
28.01000 812.534
28.02000 807.666
28.03000 805.416
28.04000 803.420
28.05000 815.244
28.06000 827.695
28.07000 838.526
28.08000 842.257
28.09000 845.156
28.10000 848.537
28.11000 853.365
28.12000 858.291
28.13000 861.648
28.14000 842.589
28.15000 827.829
28.16000 822.385
28.17000 830.230
28.18000 838.173
28.19000 839.618
28.20000 834.906
28.21000 830.230
28.22000 836.120
28.23000 848.520
28.24000 860.138
28.25000 851.621
28.26000 834.270
28.27000 818.286
28.28000 819.699
28.29000 826.394
28.30000 832.425
28.31000 835.393
28.32000 837.442
28.33000 836.652
28.34000 821.987
28.35000 805.464
28.36000 795.441
28.37000 806.984
28.38000 820.242
28.39000 829.585
28.40000 821.040
28.41000 814.023
28.42000 811.474
28.43000 816.002
28.44000 820.620
28.45000 822.309
28.46000 820.879
28.47000 819.455
28.48000 814.271
28.49000 806.511
28.50000 799.155
28.51000 805.211
28.52000 817.773
28.53000 829.336
28.54000 825.839
28.55000 817.279
28.56000 809.457
28.57000 818.219
28.58000 829.389
28.59000 836.802
28.60000 823.654
28.61000 807.387
28.62000 794.448
28.63000 793.757
28.64000 794.203
28.65000 794.527
28.66000 800.119
28.67000 804.621
28.68000 808.586
28.69000 811.607
28.70000 814.610
28.71000 814.849
28.72000 811.791
28.73000 808.732
28.74000 805.897
28.75000 803.249
28.76000 800.731
28.77000 803.916
28.78000 810.165
28.79000 816.206
28.80000 818.502
28.81000 819.404
28.82000 820.238
28.83000 817.210
28.84000 813.600
28.85000 809.919
28.86000 805.804
28.87000 801.615
28.88000 799.036
28.89000 803.039
28.90000 807.748
28.91000 811.273
28.92000 802.772
28.93000 795.577
28.94000 790.128
28.95000 788.075
28.96000 786.108
28.97000 787.901
28.98000 794.699
28.99000 801.517
29.00000 803.328
29.01000 800.736
29.02000 798.337
29.03000 808.039
29.04000 824.939
29.05000 840.716
29.06000 831.476
29.07000 811.945
29.08000 793.653
29.09000 795.712
29.10000 802.844
29.11000 809.202
29.12000 810.186
29.13000 810.138
29.14000 808.676
29.15000 800.773
29.16000 792.077
29.17000 785.390
29.18000 793.738
29.19000 801.193
29.20000 807.078
29.21000 809.584
29.22000 811.975
29.23000 812.984
29.24000 811.945
29.25000 810.887
29.26000 806.692
29.27000 799.399
29.28000 792.203
29.29000 794.414
29.30000 802.835
29.31000 810.971
29.32000 811.106
29.33000 807.602
29.34000 804.285
29.35000 802.747
29.36000 801.846
29.37000 800.537
29.38000 796.002
29.39000 790.775
29.40000 785.860
29.41000 782.534
29.42000 779.430
29.43000 776.982
29.44000 784.171
29.45000 790.588
29.46000 794.372
29.47000 791.893
29.48000 789.146
29.49000 792.148
29.50000 804.602
29.51000 817.195
29.52000 823.821
29.53000 805.352
29.54000 792.876
29.55000 790.879
29.56000 796.573
29.57000 802.092
29.58000 801.189
29.59000 797.055
29.60000 793.103
29.61000 804.049
29.62000 819.065
29.63000 831.560
29.64000 821.276
29.65000 805.546
29.66000 794.110
29.67000 807.167
29.68000 824.104
29.69000 837.780
29.70000 826.227
29.71000 814.827
29.72000 802.492
29.73000 787.695
29.74000 772.768
29.75000 768.793
29.76000 784.775
29.77000 801.177
29.78000 810.272
29.79000 819.425
29.80000 825.724
29.81000 822.679
29.82000 811.984
29.83000 801.408
29.84000 796.743
29.85000 795.369
29.86000 794.045
29.87000 795.354
29.88000 797.539
29.89000 799.453
29.90000 798.542
29.91000 796.880
29.92000 794.800
29.93000 790.031
29.94000 784.783
29.95000 780.451
29.96000 791.297
29.97000 801.641
29.98000 809.350
29.99000 809.391
30.00000 808.942
30.01000 806.370
30.02000 799.517
30.03000 792.542
30.04000 788.482
30.05000 804.383
30.06000 815.639
30.07000 817.445
30.08000 810.592
30.09000 803.794
30.10000 800.941
30.11000 800.524
30.12000 800.118
30.13000 798.680
30.14000 796.894
30.15000 795.263
30.16000 795.502
30.17000 796.293
30.18000 796.668
30.19000 794.021
30.20000 790.770
30.21000 788.030
30.22000 789.344
30.23000 790.877
30.24000 793.007
30.25000 797.060
30.26000 801.260
30.27000 804.711
30.28000 806.490
30.29000 808.209
30.30000 809.254
30.31000 806.945
30.32000 805.270
30.33000 807.177
30.34000 812.774
30.35000 818.280
30.36000 813.086
30.37000 800.557
30.38000 788.299
30.39000 784.440
30.40000 784.536
30.41000 784.928
30.42000 789.554
30.43000 795.563
30.44000 801.999
30.45000 811.974
30.46000 822.739
30.47000 831.982
30.48000 823.603
30.49000 814.336
30.50000 808.268
30.51000 813.623
30.52000 819.994
30.53000 819.395
30.54000 801.604
30.55000 783.016
30.56000 771.225
30.57000 779.415
30.58000 785.603
30.59000 792.282
30.60000 799.527
30.61000 806.760
30.62000 810.818
30.63000 812.453
30.64000 814.063
30.65000 805.888
30.66000 793.029
30.67000 780.841
30.68000 780.175
30.69000 783.672
30.70000 786.842
30.71000 786.911
30.72000 786.210
30.73000 785.597
30.74000 784.357
30.75000 783.206
30.76000 780.949
30.77000 774.300
30.78000 767.198
30.79000 766.951
30.80000 785.404
30.81000 804.916
30.82000 817.779
30.83000 799.327
30.84000 785.182
30.85000 782.208
30.86000 793.651
30.87000 805.132
30.88000 804.223
30.89000 792.759
30.90000 781.422
30.91000 781.093
30.92000 786.980
30.93000 792.456
30.94000 789.301
30.95000 782.697
30.96000 776.650
30.97000 776.734
30.98000 778.510
30.99000 780.088
31.00000 783.815
31.01000 787.394
31.02000 789.361
31.03000 784.213
31.04000 778.222
31.05000 773.495
31.06000 772.583
31.07000 771.931
31.08000 771.485
31.09000 786.342
31.10000 797.816
31.11000 803.471
31.12000 800.762
31.13000 797.988
31.14000 798.807
31.15000 803.057
31.16000 807.278
31.17000 812.307
31.18000 817.765
31.19000 822.700
31.20000 813.972
31.21000 799.205
31.22000 785.433
31.23000 784.471
31.24000 787.426
31.25000 790.092
31.26000 786.142
31.27000 781.467
31.28000 777.676
31.29000 778.245
31.30000 779.401
31.31000 781.194
31.32000 785.113
31.33000 789.203
31.34000 792.092
31.35000 790.527
31.36000 789.203
31.37000 790.687
31.38000 796.657
31.39000 802.685
31.40000 803.976
31.41000 800.182
31.42000 796.402
31.43000 791.868
31.44000 786.846
31.45000 781.963
31.46000 781.746
31.47000 783.811
31.48000 785.897
31.49000 788.306
31.50000 790.824
31.51000 793.127
31.52000 788.248
31.53000 782.431
31.54000 781.369
31.55000 806.559
31.56000 835.764
31.57000 855.489
31.58000 840.055
31.59000 821.322
31.60000 807.673
31.61000 808.007
31.62000 808.801
31.63000 807.001
31.64000 800.610
31.65000 794.130
31.66000 786.805
31.67000 778.464
31.68000 770.136
31.69000 773.743
31.70000 786.758
31.71000 799.536
31.72000 801.574
31.73000 797.801
31.74000 794.037
31.75000 790.423
31.76000 786.866
31.77000 783.570
31.78000 789.221
31.79000 796.380
31.80000 801.770
31.81000 796.179
31.82000 788.695
31.83000 783.810
31.84000 789.641
31.85000 796.634
31.86000 801.878
31.87000 814.838
31.88000 825.325
31.89000 827.496
31.90000 813.370
31.91000 798.816
31.92000 791.333
31.93000 793.339
31.94000 795.394
31.95000 796.847
31.96000 797.766
31.97000 798.695
31.98000 800.275
31.99000 802.246
32.00000 803.866
32.01000 797.574
32.02000 788.003
32.03000 779.033
32.04000 791.770
32.05000 809.021
32.06000 822.385
32.07000 808.479
32.08000 789.299
32.09000 775.648
32.10000 787.378
32.11000 802.261
32.12000 813.727
32.13000 812.420
32.14000 810.653
32.15000 809.755
32.16000 810.741
32.17000 811.792
32.18000 811.788
32.19000 810.208
32.20000 808.613
32.21000 809.408
32.22000 812.583
32.23000 815.735
32.24000 816.478
32.25000 815.619
32.26000 814.644
32.27000 810.328
32.28000 804.483
32.29000 798.946
32.30000 790.315
32.31000 781.465
32.32000 775.033
32.33000 787.884
32.34000 804.904
32.35000 818.789
32.36000 816.595
32.37000 812.129
32.38000 808.600
32.39000 805.028
32.40000 802.157
32.41000 801.805
32.42000 807.491
32.43000 813.439
32.44000 819.067
32.45000 824.164
32.46000 829.253
32.47000 831.941
32.48000 808.527
32.49000 792.700
32.50000 792.675
32.51000 804.340
32.52000 815.719
32.53000 816.435
32.54000 811.748
32.55000 807.265
32.56000 808.383
32.57000 811.257
32.58000 813.271
32.59000 807.441
32.60000 799.722
32.61000 792.802
32.62000 790.482
32.63000 788.898
32.64000 787.616
32.65000 800.818
32.66000 812.726
32.67000 822.147
32.68000 824.976
32.69000 827.451
32.70000 827.674
32.71000 823.763
32.72000 819.762
32.73000 817.536
32.74000 823.981
32.75000 828.441
32.76000 825.924
32.77000 817.650
32.78000 809.475
32.79000 806.327
32.80000 805.998
32.81000 805.681
32.82000 803.248
32.83000 800.186
32.84000 798.106
32.85000 806.390
32.86000 817.450
32.87000 825.871
32.88000 817.194
32.89000 805.444
32.90000 795.730
32.91000 801.398
32.92000 807.515
32.93000 815.563
32.94000 829.270
32.95000 843.343
32.96000 848.489
32.97000 835.497
32.98000 821.977
32.99000 814.083
33.00000 826.327
33.01000 835.032
33.02000 836.068
33.03000 830.019
33.04000 824.006
33.05000 820.703
33.06000 819.085
33.07000 817.512
33.08000 820.270
33.09000 824.661
33.10000 827.893
33.11000 816.886
33.12000 801.650
33.13000 788.707
33.14000 792.595
33.15000 799.871
33.16000 806.010
33.17000 808.478
33.18000 810.141
33.19000 812.016
33.20000 814.583
33.21000 817.202
33.22000 817.158
33.23000 811.128
33.24000 804.872
33.25000 801.053
33.26000 804.098
33.27000 806.331
33.28000 809.602
33.29000 813.949
33.30000 818.262
33.31000 818.287
33.32000 815.350
33.33000 812.476
33.34000 816.183
33.35000 822.743
33.36000 829.393
33.37000 837.354
33.38000 845.745
33.39000 853.597
33.40000 856.930
33.41000 859.249
33.42000 861.242
33.43000 854.964
33.44000 848.617
33.45000 840.580
33.46000 826.457
33.47000 811.786
33.48000 804.516
33.49000 815.631
33.50000 827.612
33.51000 835.233
33.52000 831.906
33.53000 829.352
33.54000 832.082
33.55000 840.968
33.56000 849.835
33.57000 851.943
33.58000 848.854
33.59000 845.813
33.60000 841.305
33.61000 836.188
33.62000 831.284
33.63000 830.092
33.64000 830.250
33.65000 830.491
33.66000 831.522
33.67000 832.751
33.68000 833.826
33.69000 831.683
33.70000 829.387
33.71000 826.807
33.72000 823.095
33.73000 819.265
33.74000 817.367
33.75000 820.777
33.76000 824.492
33.77000 826.947
33.78000 821.283
33.79000 816.960
33.80000 820.336
33.81000 833.726
33.82000 847.148
33.83000 853.085
33.84000 852.593
33.85000 852.107
33.86000 850.825
33.87000 849.119
33.88000 847.405
33.89000 845.525
33.90000 843.578
33.91000 841.961
33.92000 844.018
33.93000 847.095
33.94000 849.832
33.95000 842.200
33.96000 833.891
33.97000 827.290
33.98000 828.297
33.99000 830.213
34.00000 832.739
34.01000 837.121
34.02000 841.631
34.03000 844.720
34.04000 854.562
34.05000 862.094
34.06000 861.440
34.07000 848.931
34.08000 836.325
34.09000 835.591
34.10000 846.288
34.11000 856.913
34.12000 857.115
34.13000 850.692
34.14000 844.617
34.15000 847.803
34.16000 855.112
34.17000 861.457
34.18000 855.237
34.19000 845.145
34.20000 836.034
34.21000 830.206
34.22000 825.690
34.23000 824.243
34.24000 838.045
34.25000 853.926
34.26000 863.482
34.27000 851.737
34.28000 838.258
34.29000 828.716
34.30000 843.207
34.31000 854.966
34.32000 859.725
34.33000 853.229
34.34000 846.582
34.35000 842.724
34.36000 841.888
34.37000 841.055
34.38000 846.352
34.39000 855.956
34.40000 865.214
34.41000 862.594
34.42000 854.127
34.43000 846.185
34.44000 846.372
34.45000 849.332
34.46000 852.042
34.47000 855.135
34.48000 857.967
34.49000 860.105
34.50000 858.377
34.51000 856.053
34.52000 854.334
34.53000 854.878
34.54000 855.637
34.55000 856.191
34.56000 856.773
34.57000 857.223
34.58000 861.593
34.59000 872.954
34.60000 884.452
34.61000 887.247
34.62000 879.495
34.63000 871.732
34.64000 862.302
34.65000 851.586
34.66000 841.087
34.67000 840.658
34.68000 845.716
34.69000 851.087
34.70000 862.303
34.71000 875.724
34.72000 888.169
34.73000 883.005
34.74000 874.236
34.75000 866.295
34.76000 863.540
34.77000 861.686
34.78000 860.773
34.79000 863.765
34.80000 867.185
34.81000 869.755
34.82000 856.924
34.83000 846.153
34.84000 841.368
34.85000 848.398
34.86000 855.745
34.87000 863.368
34.88000 871.364
34.89000 879.358
34.90000 879.979
34.91000 874.014
34.92000 868.084
34.93000 864.549
34.94000 862.460
34.95000 860.692
34.96000 866.292
34.97000 874.967
34.98000 883.105
34.99000 884.961
35.00000 885.001
35.01000 885.388
35.02000 888.229
35.03000 891.548
35.04000 892.508
35.05000 882.556
35.06000 871.236
35.07000 862.497
35.08000 861.495
35.09000 861.150
35.10000 867.294
35.11000 887.606
35.12000 908.415
35.13000 915.612
35.14000 902.340
35.15000 888.865
35.16000 882.113
35.17000 882.473
35.18000 882.730
35.19000 884.706
35.20000 887.836
35.21000 890.602
35.22000 882.806
35.23000 870.138
35.24000 858.128
35.25000 869.721
35.26000 887.354
35.27000 902.862
35.28000 901.258
35.29000 895.925
35.30000 891.656
35.31000 892.891
35.32000 894.911
35.33000 896.509
35.34000 899.563
35.35000 902.118
35.36000 902.353
35.37000 896.988
35.38000 891.374
35.39000 892.989
35.40000 906.669
35.41000 920.536
35.42000 927.889
35.43000 922.898
35.44000 919.474
35.45000 911.735
35.46000 900.778
35.47000 889.951
35.48000 884.067
35.49000 880.707
35.50000 877.491
35.51000 872.124
35.52000 866.414
35.53000 862.493
35.54000 875.072
35.55000 891.657
35.56000 906.066
35.57000 907.854
35.58000 907.608
35.59000 907.409
35.60000 904.781
35.61000 902.443
35.62000 900.837
35.63000 901.183
35.64000 901.636
35.65000 903.755
35.66000 908.956
35.67000 914.225
35.68000 917.168
35.69000 909.008
35.70000 903.343
35.71000 901.546
35.72000 902.968
35.73000 904.312
35.74000 901.547
35.75000 896.459
35.76000 891.548
35.77000 897.431
35.78000 906.949
35.79000 914.870
35.80000 905.770
35.81000 892.080
35.82000 881.998
35.83000 895.515
35.84000 913.309
35.85000 928.040
35.86000 921.020
35.87000 913.161
35.88000 905.700
35.89000 899.415
35.90000 893.208
35.91000 891.607
35.92000 899.430
35.93000 907.533
35.94000 912.280
35.95000 897.844
35.96000 887.586
35.97000 887.124
35.98000 895.789
35.99000 904.406
36.00000 909.356
36.01000 912.009
36.02000 914.590
36.03000 915.612
36.04000 915.942
36.05000 916.224
36.06000 915.901
36.07000 915.396
36.08000 914.205
36.09000 907.937
36.10000 900.638
36.11000 894.471
36.12000 911.379
36.13000 928.051
36.14000 940.085
36.15000 936.950
36.16000 932.636
36.17000 927.323
36.18000 919.749
36.19000 912.088
36.20000 907.397
36.21000 926.732
36.22000 940.777
36.23000 943.407
36.24000 934.080
36.25000 924.755
36.26000 915.927
36.27000 907.445
36.28000 899.140
36.29000 902.256
36.30000 910.501
36.31000 918.782
36.32000 927.601
36.33000 936.598
36.34000 944.285
36.35000 940.906
36.36000 935.021
36.37000 929.955
36.38000 928.350
36.39000 927.427
36.40000 927.803
36.41000 932.894
36.42000 938.413
36.43000 938.509
36.44000 925.033
36.45000 910.909
36.46000 901.898
36.47000 913.469
36.48000 922.151
36.49000 930.992
36.50000 940.021
36.51000 949.014
36.52000 948.921
36.53000 941.787
36.54000 934.761
36.55000 939.054
36.56000 949.027
36.57000 958.767
36.58000 964.422
36.59000 968.577
36.60000 971.295
36.61000 960.065
36.62000 945.319
36.63000 932.400
36.64000 930.782
36.65000 931.024
36.66000 931.952
36.67000 935.642
36.68000 939.623
36.69000 940.577
36.70000 933.153
36.71000 925.241
36.72000 919.998
36.73000 926.992
36.74000 932.382
36.75000 933.434
36.76000 928.801
36.77000 924.151
36.78000 926.916
36.79000 936.099
36.80000 945.186
36.81000 952.523
36.82000 958.694
36.83000 964.267
36.84000 956.931
36.85000 944.362
36.86000 933.401
36.87000 940.528
36.88000 952.720
36.89000 963.575
36.90000 959.764
36.91000 954.047
36.92000 950.686
36.93000 957.889
36.94000 966.368
36.95000 972.189
36.96000 969.868
36.97000 966.980
36.98000 964.997
36.99000 952.974
37.00000 943.714
37.01000 939.988
37.02000 944.336
37.03000 948.753
37.04000 955.886
37.05000 965.657
37.06000 975.364
37.07000 978.072
37.08000 976.256
37.09000 974.257
37.10000 967.289
37.11000 958.094
37.12000 949.590
37.13000 950.198
37.14000 953.635
37.15000 956.741
37.16000 960.247
37.17000 963.406
37.18000 965.695
37.19000 963.627
37.20000 960.960
37.21000 957.607
37.22000 951.925
37.23000 946.052
37.24000 941.884
37.25000 948.181
37.26000 953.301
37.27000 956.953
37.28000 958.224
37.29000 959.462
37.30000 958.798
37.31000 956.059
37.32000 953.328
37.33000 950.069
37.34000 946.459
37.35000 943.103
37.36000 948.604
37.37000 958.499
37.38000 968.168
37.39000 974.292
37.40000 979.198
37.41000 983.693
37.42000 979.471
37.43000 973.884
37.44000 969.353
37.45000 970.749
37.46000 973.069
37.47000 974.055
37.48000 970.022
37.49000 965.507
37.50000 962.204
37.51000 964.725
37.52000 966.902
37.53000 967.201
37.54000 964.125
37.55000 960.981
37.56000 958.895
37.57000 958.101
37.58000 957.312
37.59000 960.918
37.60000 968.038
37.61000 975.177
37.62000 983.286
37.63000 991.925
37.64000 999.916
37.65000 995.634
37.66000 986.687
37.67000 978.384
37.68000 974.464
37.69000 971.966
37.70000 968.439
37.71000 958.421
37.72000 947.264
37.73000 941.701
37.74000 959.544
37.75000 979.975
37.76000 995.359
37.77000 992.355
37.78000 989.107
37.79000 990.100
37.80000 999.522
37.81000 1009.176
37.82000 1006.760
37.83000 987.901
37.84000 968.953
37.85000 959.313
37.86000 958.066
37.87000 956.957
37.88000 965.250
37.89000 979.262
37.90000 992.901
37.91000 997.870
37.92000 999.195
37.93000 1000.439
37.94000 997.297
37.95000 993.271
37.96000 989.944
37.97000 991.608
37.98000 994.253
37.99000 995.439
38.00000 989.817
38.01000 983.334
38.02000 978.320
38.03000 986.412
38.04000 993.604
38.05000 997.050
38.06000 992.258
38.07000 987.173
38.08000 990.346
38.09000 1006.034
38.10000 1021.851
38.11000 1029.810
38.12000 1022.007
38.13000 1016.766
38.14000 1008.417
38.15000 997.969
38.16000 987.627
38.17000 980.405
38.18000 974.634
38.19000 969.158
38.20000 974.975
38.21000 983.692
38.22000 991.815
38.23000 995.100
38.24000 997.323
38.25000 999.905
38.26000 1004.361
38.27000 1009.086
38.28000 1012.832
38.29000 1015.388
38.30000 1017.361
38.31000 1023.073
38.32000 1037.876
38.33000 1053.087
38.34000 1054.595
38.35000 1033.061
38.36000 1011.161
38.37000 999.504
38.38000 998.228
38.39000 997.382
38.40000 999.740
38.41000 1004.503
38.42000 1009.261
38.43000 1013.781
38.44000 1018.178
38.45000 1022.390
38.46000 1018.682
38.47000 1012.594
38.48000 1007.457
38.49000 1011.180
38.50000 1017.069
38.51000 1021.528
38.52000 1017.613
38.53000 1012.337
38.54000 1008.056
38.55000 999.893
38.56000 992.919
38.57000 990.122
38.58000 998.559
38.59000 1007.616
38.60000 1011.926
38.61000 1007.395
38.62000 1002.665
38.63000 1000.013
38.64000 1007.708
38.65000 1013.067
38.66000 1017.895
38.67000 1022.278
38.68000 1026.627
38.69000 1029.134
38.70000 1030.592
38.71000 1032.000
38.72000 1031.721
38.73000 1030.830
38.74000 1029.771
38.75000 1026.893
38.76000 1023.519
38.77000 1022.323
38.78000 1035.486
38.79000 1051.272
38.80000 1064.362
38.81000 1051.698
38.82000 1038.765
38.83000 1026.625
38.84000 1016.849
38.85000 1007.230
38.86000 1007.002
38.87000 1026.135
38.88000 1045.854
38.89000 1057.444
38.90000 1050.276
38.91000 1045.126
38.92000 1045.140
38.93000 1050.003
38.94000 1054.737
38.95000 1049.223
38.96000 1037.239
38.97000 1025.576
38.98000 1027.065
38.99000 1033.940
39.00000 1040.396
39.01000 1041.589
39.02000 1041.195
39.03000 1041.873
39.04000 1050.560
39.05000 1060.886
39.06000 1069.622
39.07000 1062.856
39.08000 1055.474
39.09000 1049.064
39.10000 1045.863
39.11000 1042.913
39.12000 1038.151
39.13000 1029.256
39.14000 1020.200
39.15000 1014.637
39.16000 1026.138
39.17000 1034.531
39.18000 1041.395
39.19000 1046.645
39.20000 1051.871
39.21000 1054.041
39.22000 1054.066
39.23000 1054.091
39.24000 1051.704
39.25000 1048.292
39.26000 1045.277
39.27000 1048.194
39.28000 1053.092
39.29000 1058.144
39.30000 1064.518
39.31000 1071.193
39.32000 1076.948
39.33000 1066.164
39.34000 1054.912
39.35000 1043.991
39.36000 1034.278
39.37000 1024.675
39.38000 1022.641
39.39000 1039.685
39.40000 1057.653
39.41000 1069.148
39.42000 1053.665
39.43000 1042.033
39.44000 1034.780
39.45000 1032.712
39.46000 1030.680
39.47000 1036.281
39.48000 1047.844
39.49000 1059.235
39.50000 1065.616
39.51000 1069.215
39.52000 1072.573
39.53000 1071.626
39.54000 1069.089
39.55000 1066.226
39.56000 1060.169
39.57000 1053.301
39.58000 1047.276
39.59000 1063.123
39.60000 1079.914
39.61000 1092.941
39.62000 1090.688
39.63000 1086.811
39.64000 1081.971
39.65000 1074.449
39.66000 1066.767
39.67000 1061.663
39.68000 1073.421
39.69000 1082.429
39.70000 1089.701
39.71000 1094.677
39.72000 1099.640
39.73000 1102.493
39.74000 1103.505
39.75000 1104.505
39.76000 1104.328
39.77000 1103.475
39.78000 1102.340
39.79000 1095.055
39.80000 1085.256
39.81000 1075.886
39.82000 1071.385
39.83000 1068.257
39.84000 1065.469
39.85000 1065.473
39.86000 1065.937
39.87000 1067.320
39.88000 1072.850
39.89000 1078.886
39.90000 1081.701
39.91000 1074.579
39.92000 1066.756
39.93000 1061.371
39.94000 1079.148
39.95000 1093.066
39.96000 1096.660
39.97000 1085.071
39.98000 1073.349
39.99000 1070.442
40.00000 1076.168
40.01000 1081.858
40.02000 1083.136
40.03000 1081.546
40.04000 1080.139
40.05000 1083.768
40.06000 1089.672
40.07000 1094.836
40.08000 1090.120
40.09000 1082.315
40.10000 1075.254
40.11000 1083.585
40.12000 1093.804
40.13000 1101.135
40.14000 1093.890
40.15000 1084.623
40.16000 1075.728
40.17000 1068.106
40.18000 1060.591
40.19000 1055.246
40.20000 1064.761
40.21000 1072.485
40.22000 1087.491
40.23000 1114.386
40.24000 1141.451
40.25000 1145.400
40.26000 1123.911
40.27000 1102.483
40.28000 1098.638
40.29000 1107.528
40.30000 1116.051
40.31000 1111.422
40.32000 1100.224
40.33000 1089.812
40.34000 1091.863
40.35000 1098.229
40.36000 1104.068
40.37000 1103.494
40.38000 1101.628
40.39000 1100.086
40.40000 1100.385
40.41000 1100.974
40.42000 1101.495
40.43000 1101.765
40.44000 1102.011
40.45000 1102.191
40.46000 1114.238
40.47000 1124.021
40.48000 1126.065
40.49000 1114.104
40.50000 1101.854
40.51000 1094.349
40.52000 1092.685
40.53000 1091.038
40.54000 1093.801
40.55000 1100.121
40.56000 1106.428
40.57000 1112.125
40.58000 1117.484
40.59000 1122.389
40.60000 1118.596
40.61000 1111.472
40.62000 1104.855
40.63000 1109.042
40.64000 1115.389
40.65000 1121.120
40.66000 1122.933
40.67000 1124.053
40.68000 1123.434
40.69000 1115.485
40.70000 1106.716
40.71000 1100.100
40.72000 1111.557
40.73000 1121.424
40.74000 1125.385
40.75000 1117.514
40.76000 1109.312
40.77000 1105.798
40.78000 1108.722
40.79000 1111.683
40.80000 1110.378
40.81000 1105.199
40.82000 1100.179
40.83000 1106.346
40.84000 1119.366
40.85000 1131.694
40.86000 1127.593
40.87000 1116.536
40.88000 1106.148
40.89000 1116.926
40.90000 1132.415
40.91000 1146.776
40.92000 1153.011
40.93000 1157.636
40.94000 1158.360
40.95000 1140.749
40.96000 1120.796
40.97000 1105.337
40.98000 1114.979
40.99000 1124.133
41.00000 1130.221
41.01000 1129.518
41.02000 1128.568
41.03000 1125.589
41.04000 1119.515
41.05000 1113.407
41.06000 1110.321
41.07000 1122.742
41.08000 1131.061
41.09000 1140.307
41.10000 1150.185
41.11000 1159.535
41.12000 1153.033
41.13000 1139.109
41.14000 1125.889
41.15000 1125.132
41.16000 1128.163
41.17000 1131.540
41.18000 1137.755
41.19000 1144.597
41.20000 1149.978
41.21000 1147.679
41.22000 1144.264
41.23000 1141.553
41.24000 1147.023
41.25000 1152.006
41.26000 1155.085
41.27000 1153.498
41.28000 1151.698
41.29000 1149.235
41.30000 1145.649
41.31000 1142.045
41.32000 1140.119
41.33000 1154.000
41.34000 1163.426
41.35000 1162.258
41.36000 1153.068
41.37000 1144.085
41.38000 1143.295
41.39000 1146.748
41.40000 1150.057
41.41000 1149.022
41.42000 1146.601
41.43000 1145.300
41.44000 1154.550
41.45000 1166.399
41.46000 1175.593
41.47000 1169.115
41.48000 1160.069
41.49000 1152.717
41.50000 1156.380
41.51000 1160.286
41.52000 1163.873
41.53000 1166.595
41.54000 1169.269
41.55000 1168.028
41.56000 1159.442
41.57000 1150.685
41.58000 1145.760
41.59000 1156.212
41.60000 1163.501
41.61000 1168.046
41.62000 1170.273
41.63000 1172.318
41.64000 1164.406
41.65000 1150.785
41.66000 1137.620
41.67000 1150.507
41.68000 1172.417
41.69000 1192.097
41.70000 1187.511
41.71000 1176.282
41.72000 1166.278
41.73000 1164.438
41.74000 1164.100
41.75000 1163.820
41.76000 1158.079
41.77000 1152.803
41.78000 1149.768
41.79000 1153.452
41.80000 1157.588
41.81000 1162.301
41.82000 1168.213
41.83000 1174.161
41.84000 1177.669
41.85000 1174.481
41.86000 1172.197
41.87000 1179.058
41.88000 1194.580
41.89000 1209.824
41.90000 1202.180
41.91000 1179.980
41.92000 1158.364
41.93000 1162.413
41.94000 1177.003
41.95000 1190.741
41.96000 1193.615
41.97000 1193.191
41.98000 1192.514
41.99000 1189.930
42.00000 1186.953
42.01000 1184.431
42.02000 1188.948
42.03000 1193.521
42.04000 1198.454
42.05000 1204.580
42.06000 1210.801
42.07000 1213.895
42.08000 1209.808
42.09000 1205.437
42.10000 1202.744
42.11000 1208.646
42.12000 1212.958
42.13000 1213.695
42.14000 1210.625
42.15000 1207.635
42.16000 1216.023
42.17000 1232.451
42.18000 1248.551
42.19000 1248.008
42.20000 1239.716
42.21000 1231.972
42.22000 1232.496
42.23000 1235.800
42.24000 1238.898
42.25000 1240.226
42.26000 1241.147
42.27000 1241.942
42.28000 1246.172
42.29000 1250.205
42.30000 1250.265
42.31000 1235.704
42.32000 1219.784
42.33000 1210.740
42.34000 1219.155
42.35000 1228.429
42.36000 1234.379
42.37000 1237.420
42.38000 1239.598
42.39000 1238.656
42.40000 1233.993
42.41000 1229.296
42.42000 1216.850
42.43000 1198.305
42.44000 1180.027
42.45000 1186.734
42.46000 1206.272
42.47000 1225.684
42.48000 1242.837
42.49000 1259.150
42.50000 1273.216
42.51000 1265.037
42.52000 1251.165
42.53000 1238.983
42.54000 1232.390
42.55000 1227.544
42.56000 1224.434
42.57000 1228.418
42.58000 1233.165
42.59000 1234.067
42.60000 1224.177
42.61000 1213.641
42.62000 1206.622
42.63000 1223.285
42.64000 1236.070
42.65000 1239.938
42.66000 1231.933
42.67000 1223.870
42.68000 1216.404
42.69000 1209.464
42.70000 1202.593
42.71000 1200.007
42.72000 1199.971
42.73000 1200.376
42.74000 1210.581
42.75000 1224.818
42.76000 1237.681
42.77000 1234.763
42.78000 1227.359
42.79000 1220.753
42.80000 1223.872
42.81000 1228.211
42.82000 1233.358
42.83000 1242.183
42.84000 1251.461
42.85000 1256.432
42.86000 1248.015
42.87000 1238.642
42.88000 1232.175
42.89000 1240.877
42.90000 1247.801
42.91000 1253.757
42.92000 1258.279
42.93000 1262.788
42.94000 1263.635
42.95000 1260.866
42.96000 1258.114
42.97000 1256.743
42.98000 1256.292
42.99000 1255.907
43.00000 1257.405
43.01000 1259.759
43.02000 1262.095
43.03000 1264.173
43.04000 1266.170
43.05000 1267.978
43.06000 1269.483
43.07000 1270.751
43.08000 1271.985
43.09000 1273.038
43.10000 1274.066
43.11000 1275.336
43.12000 1277.438
43.13000 1279.610
43.14000 1281.159
43.15000 1267.471
43.16000 1256.539
43.17000 1246.591
43.18000 1238.262
43.19000 1229.957
43.20000 1238.067
43.21000 1264.391
43.22000 1290.639
43.23000 1293.498
43.24000 1279.302
43.25000 1265.514
43.26000 1266.647
43.27000 1275.287
43.28000 1283.603
43.29000 1286.706
43.30000 1287.991
43.31000 1289.170
43.32000 1292.111
43.33000 1295.110
43.34000 1295.851
43.35000 1283.705
43.36000 1269.518
43.37000 1260.250
43.38000 1269.781
43.39000 1281.154
43.40000 1289.510
43.41000 1295.890
43.42000 1300.742
43.43000 1304.704
43.44000 1307.041
43.45000 1309.344
43.46000 1309.795
43.47000 1307.948
43.48000 1306.096
43.49000 1310.084
43.50000 1318.822
43.51000 1327.543
43.52000 1335.397
43.53000 1342.767
43.54000 1350.259
43.55000 1360.111
43.56000 1370.873
43.57000 1380.878
43.58000 1378.110
43.59000 1372.548
43.60000 1368.404
43.61000 1373.373
43.62000 1379.966
43.63000 1383.837
43.64000 1376.138
43.65000 1367.134
43.66000 1360.328
43.67000 1358.886
43.68000 1358.025
43.69000 1360.340
43.70000 1369.061
43.71000 1377.966
43.72000 1391.136
43.73000 1410.211
43.74000 1429.318
43.75000 1452.672
43.76000 1479.901
43.77000 1506.938
43.78000 1520.138
43.79000 1524.793
43.80000 1529.604
43.81000 1538.145
43.82000 1548.275
43.83000 1557.801
43.84000 1591.078
43.85000 1627.864
43.86000 1662.975
43.87000 1685.888
43.88000 1706.366
43.89000 1729.553
43.90000 1765.579
43.91000 1803.262
43.92000 1832.509
43.93000 1892.459
43.94000 1941.974
43.95000 1999.434
43.96000 2074.620
43.97000 2150.460
43.98000 2220.527
43.99000 2281.711
44.00000 2342.798
44.01000 2373.794
44.02000 2527.252
44.03000 2630.023
44.04000 2727.641
44.05000 2821.727
44.06000 2916.665
44.07000 3037.771
44.08000 3171.213
44.09000 3297.993
44.10000 3387.764
44.11000 3459.524
44.12000 3536.085
44.13000 3652.431
44.14000 3777.650
44.15000 3899.147
44.16000 4000.918
44.17000 4099.801
44.18000 4178.465
44.19000 4280.533
44.20000 4364.468
44.21000 4442.109
44.22000 4504.223
44.23000 4565.617
44.24000 4593.659
44.25000 4564.791
44.26000 4534.964
44.27000 4518.966
44.28000 4475.163
44.29000 4445.085
44.30000 4381.281
44.31000 4291.740
44.32000 4202.077
44.33000 4107.477
44.34000 4010.302
44.35000 3917.112
44.36000 3807.612
44.37000 3699.834
44.38000 3593.742
44.39000 3503.689
44.40000 3417.620
44.41000 3329.735
44.42000 3231.048
44.43000 3130.575
44.44000 3048.789
44.45000 2918.840
44.46000 2808.645
44.47000 2699.570
44.48000 2593.552
44.49000 2487.706
44.50000 2394.435
44.51000 2324.928
44.52000 2255.984
44.53000 2217.069
44.54000 2122.210
44.55000 2056.147
44.56000 1996.514
44.57000 1942.360
44.58000 1888.508
44.59000 1851.697
44.60000 1824.732
44.61000 1798.655
44.62000 1758.099
44.63000 1714.352
44.64000 1672.482
44.65000 1651.283
44.66000 1635.786
44.67000 1619.859
44.68000 1601.041
44.69000 1581.687
44.70000 1565.592
44.71000 1546.867
44.72000 1531.113
44.73000 1515.722
44.74000 1501.428
44.75000 1487.210
44.76000 1473.404
44.77000 1460.462
44.78000 1447.546
44.79000 1439.906
44.80000 1435.512
44.81000 1432.424
44.82000 1428.924
44.83000 1425.031
44.84000 1421.057
44.85000 1410.278
44.86000 1395.139
44.87000 1380.391
44.88000 1384.040
44.89000 1395.274
44.90000 1405.404
44.91000 1401.329
44.92000 1392.908
44.93000 1384.398
44.94000 1375.208
44.95000 1365.878
44.96000 1357.962
44.97000 1365.381
44.98000 1373.338
44.99000 1376.150
45.00000 1361.762
45.01000 1345.989
45.02000 1338.369
45.03000 1349.600
45.04000 1361.589
45.05000 1368.997
45.06000 1374.854
45.07000 1379.047
45.08000 1376.637
45.09000 1367.137
45.10000 1357.646
45.11000 1349.945
45.12000 1343.517
45.13000 1337.215
45.14000 1342.393
45.15000 1352.781
45.16000 1362.805
45.17000 1367.269
45.18000 1369.849
45.19000 1371.903
45.20000 1369.379
45.21000 1365.793
45.22000 1362.693
45.23000 1353.063
45.24000 1344.033
45.25000 1337.699
45.26000 1341.361
45.27000 1345.961
45.28000 1353.421
45.29000 1368.191
45.30000 1383.327
45.31000 1393.064
45.32000 1361.344
45.33000 1337.616
45.34000 1329.292
45.35000 1339.492
45.36000 1349.718
45.37000 1356.168
45.38000 1359.623
45.39000 1363.029
45.40000 1358.991
45.41000 1351.156
45.42000 1343.687
45.43000 1342.944
45.44000 1344.722
45.45000 1346.729
45.46000 1351.043
45.47000 1355.952
45.48000 1360.268
45.49000 1336.066
45.50000 1311.016
45.51000 1294.196
45.52000 1311.295
45.53000 1332.072
45.54000 1346.701
45.55000 1343.943
45.56000 1340.130
45.57000 1337.583
45.58000 1343.328
45.59000 1347.746
45.60000 1350.367
45.61000 1350.575
45.62000 1350.772
45.63000 1352.848
45.64000 1356.591
45.65000 1360.297
45.66000 1360.204
45.67000 1357.882
45.68000 1354.949
45.69000 1338.199
45.70000 1315.723
45.71000 1295.548
45.72000 1302.124
45.73000 1316.357
45.74000 1329.072
45.75000 1321.443
45.76000 1311.370
45.77000 1303.654
45.78000 1306.762
45.79000 1311.215
45.80000 1315.505
45.81000 1319.284
45.82000 1323.027
45.83000 1325.616
45.84000 1341.267
45.85000 1353.376
45.86000 1362.070
45.87000 1365.667
45.88000 1369.215
45.89000 1365.757
45.90000 1355.321
45.91000 1344.946
45.92000 1341.215
45.93000 1341.894
45.94000 1342.501
45.95000 1341.028
45.96000 1338.604
45.97000 1337.412
45.98000 1353.058
45.99000 1374.048
46.00000 1393.076
46.01000 1385.125
46.02000 1372.969
46.03000 1363.053
46.04000 1364.630
46.05000 1367.831
46.06000 1373.112
46.07000 1385.609
46.08000 1398.720
46.09000 1408.087
46.10000 1385.455
46.11000 1367.120
46.12000 1356.111
46.13000 1357.238
46.14000 1358.549
46.15000 1362.517
46.16000 1369.459
46.17000 1376.381
46.18000 1370.245
46.19000 1354.570
46.20000 1339.432
46.21000 1344.344
46.22000 1359.417
46.23000 1374.022
46.24000 1381.028
46.25000 1385.365
46.26000 1389.350
46.27000 1381.276
46.28000 1371.474
46.29000 1362.272
46.30000 1356.522
46.31000 1351.324
46.32000 1349.459
46.33000 1360.431
46.34000 1372.672
46.35000 1381.686
46.36000 1383.597
46.37000 1384.781
46.38000 1385.552
46.39000 1385.563
46.40000 1385.557
46.41000 1380.661
46.42000 1369.647
46.43000 1358.628
46.44000 1359.259
46.45000 1369.473
46.46000 1379.734
46.47000 1392.404
46.48000 1406.425
46.49000 1419.084
46.50000 1404.811
46.51000 1380.077
46.52000 1357.065
46.53000 1348.404
46.54000 1344.051
46.55000 1342.298
46.56000 1357.405
46.57000 1375.542
46.58000 1390.612
46.59000 1392.549
46.60000 1392.988
46.61000 1393.321
46.62000 1398.052
46.63000 1401.988
46.64000 1398.352
46.65000 1379.330
46.66000 1359.860
46.67000 1353.071
46.68000 1363.963
46.69000 1374.970
46.70000 1381.851
46.71000 1384.917
46.72000 1387.859
46.73000 1381.539
46.74000 1369.459
46.75000 1357.681
46.76000 1353.292
46.77000 1352.077
46.78000 1350.932
46.79000 1357.801
46.80000 1366.254
46.81000 1375.494
46.82000 1390.517
46.83000 1406.703
46.84000 1419.649
46.85000 1417.122
46.86000 1412.581
46.87000 1409.050
46.88000 1394.465
46.89000 1382.182
46.90000 1378.911
46.91000 1395.893
46.92000 1413.636
46.93000 1411.671
46.94000 1379.165
46.95000 1346.311
46.96000 1329.570
46.97000 1350.821
46.98000 1365.040
46.99000 1374.418
47.00000 1380.451
47.01000 1386.165
47.02000 1381.888
47.03000 1372.866
47.04000 1364.288
47.05000 1380.026
47.06000 1401.972
47.07000 1420.736
47.08000 1412.877
47.09000 1399.034
47.10000 1387.088
47.11000 1385.276
47.12000 1384.962
47.13000 1384.712
47.14000 1391.268
47.15000 1397.051
47.16000 1402.876
47.17000 1408.806
47.18000 1414.742
47.19000 1411.220
47.20000 1391.440
47.21000 1371.379
47.22000 1360.578
47.23000 1362.937
47.24000 1364.603
47.25000 1376.155
47.26000 1395.312
47.27000 1414.064
47.28000 1416.063
47.29000 1409.260
47.30000 1402.732
47.31000 1403.522
47.32000 1406.752
47.33000 1409.238
47.34000 1404.590
47.35000 1398.157
47.36000 1392.380
47.37000 1390.544
47.38000 1389.365
47.39000 1388.403
47.40000 1391.508
47.41000 1394.392
47.42000 1396.946
47.43000 1398.590
47.44000 1400.181
47.45000 1406.748
47.46000 1422.789
47.47000 1439.058
47.48000 1448.273
47.49000 1430.122
47.50000 1417.414
47.51000 1406.202
47.52000 1396.274
47.53000 1386.625
47.54000 1393.211
47.55000 1409.245
47.56000 1424.759
47.57000 1434.987
47.58000 1442.639
47.59000 1449.707
47.60000 1450.284
47.61000 1449.057
47.62000 1446.642
47.63000 1436.186
47.64000 1424.224
47.65000 1414.261
47.66000 1426.775
47.67000 1439.370
47.68000 1447.075
47.69000 1439.913
47.70000 1431.726
47.71000 1426.406
47.72000 1427.123
47.73000 1428.034
47.74000 1428.574
47.75000 1429.578
47.76000 1430.290
47.77000 1426.439
47.78000 1418.194
47.79000 1410.070
47.80000 1412.521
47.81000 1421.799
47.82000 1430.842
47.83000 1430.524
47.84000 1426.244
47.85000 1422.516
47.86000 1425.988
47.87000 1431.679
47.88000 1437.305
47.89000 1442.436
47.90000 1447.462
47.91000 1451.732
47.92000 1434.155
47.93000 1416.903
47.94000 1405.383
47.95000 1413.167
47.96000 1422.521
47.97000 1434.816
47.98000 1453.961
47.99000 1473.387
48.00000 1485.426
48.01000 1477.673
48.02000 1471.907
48.03000 1466.182
48.04000 1460.502
48.05000 1454.815
48.06000 1448.050
48.07000 1440.513
48.08000 1433.120
48.09000 1434.130
48.10000 1439.089
48.11000 1443.805
48.12000 1444.760
48.13000 1444.432
48.14000 1444.667
48.15000 1449.857
48.16000 1456.204
48.17000 1461.697
48.18000 1473.346
48.19000 1484.057
48.20000 1491.165
48.21000 1484.807
48.22000 1477.172
48.23000 1466.929
48.24000 1449.969
48.25000 1432.667
48.26000 1421.506
48.27000 1430.861
48.28000 1437.989
48.29000 1436.394
48.30000 1424.225
48.31000 1412.068
48.32000 1412.025
48.33000 1421.669
48.34000 1431.180
48.35000 1435.668
48.36000 1437.370
48.37000 1438.923
48.38000 1437.698
48.39000 1435.425
48.40000 1433.776
48.41000 1438.433
48.42000 1444.729
48.43000 1450.270
48.44000 1456.241
48.45000 1461.446
48.46000 1467.212
48.47000 1475.303
48.48000 1483.649
48.49000 1484.715
48.50000 1465.044
48.51000 1444.099
48.52000 1430.074
48.53000 1443.264
48.54000 1453.591
48.55000 1464.188
48.56000 1475.148
48.57000 1486.104
48.58000 1487.869
48.59000 1481.412
48.60000 1475.016
48.61000 1467.967
48.62000 1460.672
48.63000 1453.495
48.64000 1449.031
48.65000 1445.697
48.66000 1442.765
48.67000 1444.539
48.68000 1447.670
48.69000 1450.471
48.70000 1442.923
48.71000 1434.583
48.72000 1431.569
48.73000 1453.201
48.74000 1477.924
48.75000 1492.039
48.76000 1472.702
48.77000 1450.916
48.78000 1435.811
48.79000 1450.466
48.80000 1462.285
48.81000 1469.633
48.82000 1470.257
48.83000 1470.814
48.84000 1469.803
48.85000 1467.218
48.86000 1464.647
48.87000 1470.381
48.88000 1481.532
48.89000 1492.314
48.90000 1492.368
48.91000 1487.471
48.92000 1482.103
48.93000 1470.217
48.94000 1456.247
48.95000 1443.571
48.96000 1451.548
48.97000 1462.564
48.98000 1469.492
48.99000 1455.279
49.00000 1438.051
49.01000 1431.018
49.02000 1459.609
49.03000 1491.265
49.04000 1513.932
49.05000 1502.358
49.06000 1492.359
49.07000 1489.197
49.08000 1497.446
49.09000 1505.872
49.10000 1502.578
49.11000 1486.067
49.12000 1469.593
49.13000 1467.222
49.14000 1475.308
49.15000 1483.217
49.16000 1484.391
49.17000 1482.127
49.18000 1480.149
49.19000 1482.904
49.20000 1487.333
49.21000 1491.407
49.22000 1490.312
49.23000 1488.212
49.24000 1486.347
49.25000 1485.847
49.26000 1485.566
49.27000 1483.055
49.28000 1471.894
49.29000 1459.868
49.30000 1450.994
49.31000 1462.290
49.32000 1471.892
49.33000 1478.368
49.34000 1479.065
49.35000 1479.633
49.36000 1479.036
49.37000 1476.969
49.38000 1474.899
49.39000 1476.412
49.40000 1480.890
49.41000 1485.265
49.42000 1484.217
49.43000 1480.103
49.44000 1476.231
49.45000 1477.201
49.46000 1480.064
49.47000 1482.731
49.48000 1488.697
49.49000 1494.896
49.50000 1500.298
49.51000 1500.482
49.52000 1499.721
49.53000 1498.527
49.54000 1495.461
49.55000 1492.180
49.56000 1489.690
49.57000 1501.037
49.58000 1510.665
49.59000 1515.137
49.60000 1509.057
49.61000 1502.664
49.62000 1491.804
49.63000 1474.668
49.64000 1457.492
49.65000 1455.989
49.66000 1469.082
49.67000 1482.149
49.68000 1493.245
49.69000 1503.105
49.70000 1512.997
49.71000 1523.660
49.72000 1534.658
49.73000 1545.015
49.74000 1530.352
49.75000 1510.089
49.76000 1491.251
49.77000 1482.974
49.78000 1476.841
49.79000 1473.827
49.80000 1485.830
49.81000 1499.805
49.82000 1510.692
49.83000 1503.481
49.84000 1496.617
49.85000 1493.667
49.86000 1499.574
49.87000 1505.821
49.88000 1510.092
49.89000 1511.279
49.90000 1512.429
49.91000 1513.018
49.92000 1503.999
49.93000 1497.960
49.94000 1494.645
49.95000 1493.225
49.96000 1491.530
49.97000 1481.052
49.98000 1466.373
49.99000 1452.407
50.00000 1460.567
50.01000 1474.903
50.02000 1488.355
50.03000 1494.352
50.04000 1498.659
50.05000 1502.574
50.06000 1504.372
50.07000 1505.855
50.08000 1507.039
50.09000 1514.187
50.10000 1520.397
50.11000 1525.185
50.12000 1526.415
50.13000 1527.475
50.14000 1526.025
50.15000 1520.227
50.16000 1514.351
50.17000 1511.176
50.18000 1531.493
50.19000 1545.379
50.20000 1547.819
50.21000 1541.387
50.22000 1534.970
50.23000 1529.146
50.24000 1523.638
50.25000 1518.349
50.26000 1513.464
50.27000 1509.035
50.28000 1505.211
50.29000 1507.273
50.30000 1510.818
50.31000 1512.842
50.32000 1505.653
50.33000 1496.915
50.34000 1489.780
50.35000 1506.458
50.36000 1522.157
50.37000 1533.656
50.38000 1533.529
50.39000 1532.724
50.40000 1527.774
50.41000 1514.873
50.42000 1501.775
50.43000 1494.330
50.44000 1501.665
50.45000 1506.810
50.46000 1504.204
50.47000 1494.887
50.48000 1485.913
50.49000 1497.338
50.50000 1520.722
50.51000 1543.360
50.52000 1538.826
50.53000 1524.123
50.54000 1511.712
50.55000 1525.092
50.56000 1545.693
50.57000 1563.396
50.58000 1561.290
50.59000 1555.444
50.60000 1550.568
50.61000 1532.013
50.62000 1515.257
50.63000 1504.605
50.64000 1512.650
50.65000 1521.999
50.66000 1530.443
50.67000 1536.964
50.68000 1543.423
50.69000 1547.268
50.70000 1517.343
50.71000 1495.937
50.72000 1493.081
50.73000 1508.240
50.74000 1523.326
50.75000 1531.741
50.76000 1535.817
50.77000 1539.791
50.78000 1539.889
50.79000 1538.323
50.80000 1536.974
50.81000 1538.472
50.82000 1540.855
50.83000 1542.194
50.84000 1535.438
50.85000 1526.973
50.86000 1519.772
50.87000 1524.772
50.88000 1530.382
50.89000 1535.169
50.90000 1537.161
50.91000 1538.924
50.92000 1539.462
50.93000 1537.127
50.94000 1534.672
50.95000 1533.147
50.96000 1539.743
50.97000 1544.573
50.98000 1541.557
50.99000 1529.976
51.00000 1518.469
51.01000 1519.192
51.02000 1528.759
51.03000 1538.147
51.04000 1535.356
51.05000 1526.843
51.06000 1518.790
51.07000 1517.927
51.08000 1519.537
51.09000 1521.233
51.10000 1523.695
51.11000 1526.337
51.12000 1528.626
51.13000 1540.636
51.14000 1552.144
51.15000 1564.024
51.16000 1577.307
51.17000 1590.724
51.18000 1595.411
51.19000 1577.450
51.20000 1558.324
51.21000 1545.951
51.22000 1572.602
51.23000 1592.668
51.24000 1594.844
51.25000 1575.161
51.26000 1555.471
51.27000 1552.114
51.28000 1561.922
51.29000 1571.599
51.30000 1572.517
51.31000 1568.733
51.32000 1564.632
51.33000 1554.545
51.34000 1542.181
51.35000 1531.422
51.36000 1537.056
51.37000 1546.982
51.38000 1555.729
51.39000 1569.829
51.40000 1582.790
51.41000 1592.007
51.42000 1585.561
51.43000 1577.382
51.44000 1565.510
51.45000 1543.044
51.46000 1519.918
51.47000 1504.392
51.48000 1512.624
51.49000 1519.221
51.50000 1528.711
51.51000 1542.143
51.52000 1555.594
51.53000 1562.899
51.54000 1564.663
51.55000 1566.411
51.56000 1574.175
51.57000 1585.375
51.58000 1595.245
51.59000 1574.052
51.60000 1539.803
51.61000 1509.433
51.62000 1525.186
51.63000 1554.340
51.64000 1580.440
51.65000 1580.928
51.66000 1576.961
51.67000 1573.648
51.68000 1573.390
51.69000 1573.519
51.70000 1571.533
51.71000 1562.831
51.72000 1553.631
51.73000 1547.238
51.74000 1548.349
51.75000 1549.388
51.76000 1550.397
51.77000 1551.360
51.78000 1552.323
51.79000 1555.354
51.80000 1560.480
51.81000 1565.578
51.82000 1566.562
51.83000 1564.791
51.84000 1563.048
51.85000 1562.166
51.86000 1561.682
51.87000 1561.601
51.88000 1567.148
51.89000 1574.507
51.90000 1581.192
51.91000 1585.832
51.92000 1589.534
51.93000 1591.260
51.94000 1582.679
51.95000 1572.614
51.96000 1564.167
51.97000 1561.415
51.98000 1559.159
51.99000 1557.540
52.00000 1553.121
52.01000 1549.646
52.02000 1548.810
52.03000 1552.413
52.04000 1556.087
52.05000 1566.220
52.06000 1583.696
52.07000 1601.130
52.08000 1602.894
52.09000 1592.952
52.10000 1583.234
52.11000 1582.184
52.12000 1585.592
52.13000 1588.372
52.14000 1580.669
52.15000 1569.229
52.16000 1558.698
52.17000 1564.199
52.18000 1572.626
52.19000 1580.174
52.20000 1582.578
52.21000 1584.147
52.22000 1585.807
52.23000 1587.823
52.24000 1589.875
52.25000 1591.392
52.26000 1589.832
52.27000 1588.490
52.28000 1586.874
52.29000 1584.748
52.30000 1582.610
52.31000 1584.565
52.32000 1591.720
52.33000 1598.885
52.34000 1603.145
52.35000 1604.962
52.36000 1606.686
52.37000 1603.374
52.38000 1597.194
52.39000 1590.853
52.40000 1581.233
52.41000 1570.320
52.42000 1560.150
52.43000 1556.072
52.44000 1553.881
52.45000 1553.866
52.46000 1568.209
52.47000 1585.176
52.48000 1598.242
52.49000 1594.346
52.50000 1588.478
52.51000 1584.016
52.52000 1587.372
52.53000 1590.419
52.54000 1591.022
52.55000 1586.586
52.56000 1581.997
52.57000 1577.012
52.58000 1571.465
52.59000 1565.915
52.60000 1565.929
52.61000 1571.169
52.62000 1576.376
52.63000 1579.040
52.64000 1580.098
52.65000 1581.240
52.66000 1584.505
52.67000 1588.693
52.68000 1592.640
52.69000 1590.628
52.70000 1587.140
52.71000 1583.297
52.72000 1576.795
52.73000 1569.749
52.74000 1567.434
52.75000 1588.072
52.76000 1611.754
52.77000 1630.235
52.78000 1612.745
52.79000 1596.545
52.80000 1586.746
52.81000 1591.544
52.82000 1596.909
52.83000 1594.697
52.84000 1580.566
52.85000 1566.289
52.86000 1558.955
52.87000 1584.876
52.88000 1602.221
52.89000 1606.790
52.90000 1602.398
52.91000 1598.269
52.92000 1602.685
52.93000 1611.217
52.94000 1619.340
52.95000 1611.730
52.96000 1599.820
52.97000 1589.070
52.98000 1588.210
52.99000 1589.608
53.00000 1590.978
53.01000 1592.196
53.02000 1593.391
53.03000 1594.346
53.04000 1581.056
53.05000 1569.256
53.06000 1563.728
53.07000 1574.010
53.08000 1585.058
53.09000 1594.707
53.10000 1601.917
53.11000 1609.081
53.12000 1612.968
53.13000 1619.623
53.14000 1624.170
53.15000 1624.039
53.16000 1620.252
53.17000 1616.495
53.18000 1614.053
53.19000 1612.310
53.20000 1610.636
53.21000 1604.193
53.22000 1596.511
53.23000 1590.869
53.24000 1605.217
53.25000 1624.643
53.26000 1641.333
53.27000 1641.320
53.28000 1638.475
53.29000 1636.148
53.30000 1623.925
53.31000 1613.051
53.32000 1605.149
53.33000 1605.534
53.34000 1606.408
53.35000 1609.947
53.36000 1618.633
53.37000 1627.448
53.38000 1632.477
53.39000 1599.902
53.40000 1577.094
53.41000 1585.444
53.42000 1620.994
53.43000 1655.996
53.44000 1657.533
53.45000 1639.303
53.46000 1621.645
53.47000 1609.150
53.48000 1599.325
53.49000 1590.533
53.50000 1593.487
53.51000 1599.755
53.52000 1604.394
53.53000 1597.811
53.54000 1589.093
53.55000 1581.810
53.56000 1588.908
53.57000 1596.255
53.58000 1601.200
53.59000 1598.733
53.60000 1595.744
53.61000 1596.338
53.62000 1604.590
53.63000 1613.098
53.64000 1618.180
53.65000 1637.090
53.66000 1650.590
53.67000 1644.754
53.68000 1619.979
53.69000 1595.412
53.70000 1590.392
53.71000 1598.180
53.72000 1605.779
53.73000 1618.051
53.74000 1631.795
53.75000 1644.655
53.76000 1645.705
53.77000 1643.063
53.78000 1640.691
53.79000 1640.425
53.80000 1640.609
53.81000 1640.765
53.82000 1637.027
53.83000 1633.430
53.84000 1633.015
53.85000 1643.476
53.86000 1654.844
53.87000 1665.609
53.88000 1674.955
53.89000 1684.241
53.90000 1690.030
53.91000 1658.777
53.92000 1635.869
53.93000 1630.779
53.94000 1645.299
53.95000 1659.741
53.96000 1659.328
53.97000 1648.093
53.98000 1637.062
53.99000 1628.456
54.00000 1621.322
54.01000 1614.613
54.02000 1614.661
54.03000 1617.046
54.04000 1619.897
54.05000 1626.913
54.06000 1634.917
54.07000 1641.861
54.08000 1635.393
54.09000 1628.090
54.10000 1623.630
54.11000 1629.952
54.12000 1637.318
54.13000 1644.017
54.14000 1648.968
54.15000 1653.828
54.16000 1656.981
54.17000 1644.102
54.18000 1634.430
54.19000 1630.292
54.20000 1632.969
54.21000 1635.664
54.22000 1638.415
54.23000 1641.212
54.24000 1643.972
54.25000 1654.478
54.26000 1668.872
54.27000 1682.512
54.28000 1681.673
54.29000 1675.290
54.30000 1669.217
54.31000 1666.345
54.32000 1664.318
54.33000 1662.529
54.34000 1662.314
54.35000 1662.370
54.36000 1660.642
54.37000 1651.393
54.38000 1641.303
54.39000 1637.793
54.40000 1653.305
54.41000 1670.016
54.42000 1681.264
54.43000 1662.073
54.44000 1647.174
54.45000 1642.024
54.46000 1650.260
54.47000 1658.570
54.48000 1653.211
54.49000 1635.424
54.50000 1617.793
54.51000 1620.210
54.52000 1634.633
54.53000 1648.908
54.54000 1659.666
54.55000 1668.936
54.56000 1677.075
54.57000 1671.623
54.58000 1662.194
54.59000 1653.743
54.60000 1646.595
54.61000 1640.576
54.62000 1637.385
54.63000 1647.486
54.64000 1659.286
54.65000 1669.373
54.66000 1673.978
54.67000 1678.172
54.68000 1681.094
54.69000 1657.015
54.70000 1638.109
54.71000 1630.194
54.72000 1639.060
54.73000 1648.106
54.74000 1645.944
54.75000 1632.333
54.76000 1618.794
54.77000 1620.033
54.78000 1631.190
54.79000 1642.164
54.80000 1647.623
54.81000 1650.501
54.82000 1653.550
54.83000 1659.023
54.84000 1665.282
54.85000 1670.974
54.86000 1648.197
54.87000 1622.485
54.88000 1603.857
54.89000 1622.474
54.90000 1646.496
54.91000 1663.978
54.92000 1658.268
54.93000 1650.516
54.94000 1644.941
54.95000 1633.751
54.96000 1624.990
54.97000 1624.347
54.98000 1637.457
54.99000 1650.792
55.00000 1662.014
55.01000 1670.814
55.02000 1679.588
55.03000 1676.375
55.04000 1664.165
55.05000 1652.441
55.06000 1659.974
55.07000 1677.482
55.08000 1693.647
55.09000 1687.063
55.10000 1672.315
55.11000 1658.725
55.12000 1668.060
55.13000 1681.473
55.14000 1692.348
55.15000 1688.254
55.16000 1681.705
55.17000 1675.566
55.18000 1671.042
55.19000 1666.682
55.20000 1663.452
55.21000 1657.911
55.22000 1653.508
55.23000 1656.255
55.24000 1672.417
55.25000 1688.890
55.26000 1692.439
55.27000 1679.435
55.28000 1666.381
55.29000 1659.815
55.30000 1658.737
55.31000 1657.452
55.32000 1644.790
55.33000 1625.603
55.34000 1607.955
55.35000 1622.074
55.36000 1648.804
55.37000 1673.735
55.38000 1673.706
55.39000 1667.490
55.40000 1662.100
55.41000 1662.220
55.42000 1663.355
55.43000 1666.934
55.44000 1681.222
55.45000 1696.766
55.46000 1708.608
55.47000 1684.932
55.48000 1664.413
55.49000 1649.039
55.50000 1644.346
55.51000 1639.982
55.52000 1639.663
55.53000 1645.115
55.54000 1650.609
55.55000 1653.162
55.56000 1652.929
55.57000 1652.721
55.58000 1654.666
55.59000 1657.979
55.60000 1661.232
55.61000 1662.949
55.62000 1663.993
55.63000 1664.977
55.64000 1668.601
55.65000 1672.656
55.66000 1675.967
55.67000 1673.658
55.68000 1670.191
55.69000 1670.679
55.70000 1690.512
55.71000 1712.933
55.72000 1730.462
55.73000 1721.328
55.74000 1712.345
55.75000 1704.807
55.76000 1700.587
55.77000 1696.498
55.78000 1692.027
55.79000 1686.953
55.80000 1681.870
55.81000 1679.248
55.82000 1670.426
55.83000 1664.559
55.84000 1669.520
55.85000 1682.132
55.86000 1694.167
55.87000 1687.100
55.88000 1670.763
55.89000 1655.199
55.90000 1657.432
55.91000 1665.047
55.92000 1671.935
55.93000 1672.568
55.94000 1671.761
55.95000 1673.456
55.96000 1688.849
55.97000 1706.321
55.98000 1720.314
55.99000 1703.440
56.00000 1687.468
56.01000 1677.617
56.02000 1683.304
56.03000 1689.757
56.04000 1692.603
56.05000 1689.112
56.06000 1685.503
56.07000 1683.537
56.08000 1676.339
56.09000 1671.420
56.10000 1674.368
56.11000 1683.512
56.12000 1692.659
56.13000 1701.984
56.14000 1711.404
56.15000 1720.461
56.16000 1717.287
56.17000 1710.049
56.18000 1702.745
56.19000 1694.770
56.20000 1686.625
56.21000 1679.294
56.22000 1676.983
56.23000 1675.531
56.24000 1674.341
56.25000 1688.953
56.26000 1702.325
56.27000 1710.207
56.28000 1702.675
56.29000 1694.221
56.30000 1690.777
56.31000 1697.083
56.32000 1703.641
56.33000 1707.394
56.34000 1701.733
56.35000 1697.747
56.36000 1693.545
56.37000 1689.153
56.38000 1684.896
56.39000 1689.063
56.40000 1698.242
56.41000 1707.139
56.42000 1707.771
56.43000 1705.149
56.44000 1702.513
56.45000 1699.696
56.46000 1696.828
56.47000 1694.373
56.48000 1694.786
56.49000 1695.750
56.50000 1696.557
56.51000 1691.556
56.52000 1686.809
56.53000 1686.576
56.54000 1700.373
56.55000 1715.174
56.56000 1722.408
56.57000 1713.353
56.58000 1703.748
56.59000 1697.992
56.60000 1687.109
56.61000 1679.348
56.62000 1677.656
56.63000 1681.961
56.64000 1686.339
56.65000 1697.905
56.66000 1714.216
56.67000 1730.137
56.68000 1726.196
56.69000 1713.787
56.70000 1702.303
56.71000 1703.307
56.72000 1708.246
56.73000 1713.337
56.74000 1719.640
56.75000 1726.202
56.76000 1731.799
56.77000 1719.723
56.78000 1707.475
56.79000 1699.948
56.80000 1708.672
56.81000 1718.766
56.82000 1722.403
56.83000 1710.673
56.84000 1698.284
56.85000 1690.538
56.86000 1707.656
56.87000 1720.273
56.88000 1720.378
56.89000 1706.600
56.90000 1692.859
56.91000 1687.104
56.92000 1687.213
56.93000 1687.320
56.94000 1691.761
56.95000 1698.152
56.96000 1704.918
56.97000 1717.703
56.98000 1732.587
56.99000 1746.355
57.00000 1750.042
57.01000 1751.318
57.02000 1752.426
57.03000 1750.849
57.04000 1749.141
57.05000 1745.916
57.06000 1736.890
57.07000 1727.297
57.08000 1718.270
57.09000 1710.736
57.10000 1703.281
57.11000 1698.432
57.12000 1698.692
57.13000 1698.962
57.14000 1694.007
57.15000 1682.565
57.16000 1671.112
57.17000 1662.533
57.18000 1656.308
57.19000 1650.162
57.20000 1665.258
57.21000 1691.480
57.22000 1716.319
57.23000 1714.234
57.24000 1701.766
57.25000 1691.302
57.26000 1701.757
57.27000 1717.772
57.28000 1731.919
57.29000 1727.990
57.30000 1721.815
57.31000 1717.725
57.32000 1722.497
57.33000 1728.269
57.34000 1732.626
57.35000 1732.866
57.36000 1732.842
57.37000 1732.826
57.38000 1725.134
57.39000 1719.247
57.40000 1714.380
57.41000 1710.926
57.42000 1707.485
57.43000 1713.451
57.44000 1728.038
57.45000 1742.503
57.46000 1738.336
57.47000 1722.956
57.48000 1708.197
57.49000 1708.374
57.50000 1714.922
57.51000 1720.381
57.52000 1712.595
57.53000 1700.904
57.54000 1690.414
57.55000 1711.436
57.56000 1735.317
57.57000 1754.728
57.58000 1752.961
57.59000 1748.463
57.60000 1743.446
57.61000 1736.758
57.62000 1729.943
57.63000 1725.185
57.64000 1726.607
57.65000 1727.854
57.66000 1727.297
57.67000 1723.963
57.68000 1720.599
57.69000 1728.189
57.70000 1747.064
57.71000 1765.845
57.72000 1768.551
57.73000 1760.335
57.74000 1752.200
57.75000 1746.584
57.76000 1742.155
57.77000 1737.540
57.78000 1730.260
57.79000 1722.108
57.80000 1714.689
57.81000 1716.222
57.82000 1719.345
57.83000 1721.372
57.84000 1717.588
57.85000 1712.951
57.86000 1709.792
57.87000 1711.911
57.88000 1714.499
57.89000 1716.364
57.90000 1711.999
57.91000 1708.432
57.92000 1708.971
57.93000 1716.517
57.94000 1724.180
57.95000 1727.513
57.96000 1725.841
57.97000 1724.167
57.98000 1721.450
57.99000 1717.958
58.00000 1714.576
58.01000 1715.609
58.02000 1718.946
58.03000 1722.172
58.04000 1723.493
58.05000 1724.125
58.06000 1724.708
58.07000 1708.980
58.08000 1691.261
58.09000 1679.618
58.10000 1704.132
58.11000 1734.624
58.12000 1761.562
58.13000 1774.397
58.14000 1785.777
58.15000 1794.227
58.16000 1767.107
58.17000 1744.463
58.18000 1735.027
58.19000 1750.555
58.20000 1766.673
58.21000 1768.281
58.22000 1751.156
58.23000 1733.971
58.24000 1733.559
58.25000 1747.410
58.26000 1760.835
58.27000 1750.229
58.28000 1725.738
58.29000 1701.950
58.30000 1692.872
58.31000 1689.675
58.32000 1686.691
58.33000 1702.234
58.34000 1720.957
58.35000 1738.468
58.36000 1747.838
58.37000 1755.696
58.38000 1761.717
58.39000 1759.626
58.40000 1756.575
58.41000 1754.245
58.42000 1746.532
58.43000 1740.164
58.44000 1738.538
58.45000 1746.828
58.46000 1755.429
58.47000 1756.444
58.48000 1746.552
58.49000 1736.575
58.50000 1731.219
58.51000 1730.279
58.52000 1729.312
58.53000 1726.033
58.54000 1721.273
58.55000 1716.969
58.56000 1724.609
58.57000 1737.529
58.58000 1749.724
58.59000 1761.679
58.60000 1772.576
58.61000 1782.450
58.62000 1784.536
58.63000 1785.003
58.64000 1784.511
58.65000 1779.295
58.66000 1773.440
58.67000 1768.854
58.68000 1776.188
58.69000 1782.813
58.70000 1785.084
58.71000 1777.284
58.72000 1769.079
58.73000 1762.649
58.74000 1759.053
58.75000 1755.493
58.76000 1753.650
58.77000 1757.485
58.78000 1760.059
58.79000 1760.584
58.80000 1759.648
58.81000 1758.668
58.82000 1756.159
58.83000 1752.902
58.84000 1749.798
58.85000 1750.287
58.86000 1751.870
58.87000 1752.661
58.88000 1746.567
58.89000 1738.876
58.90000 1732.719
58.91000 1735.027
58.92000 1738.630
58.93000 1741.520
58.94000 1738.580
58.95000 1735.755
58.96000 1736.531
58.97000 1746.517
58.98000 1756.963
58.99000 1767.115
59.00000 1776.750
59.01000 1786.374
59.02000 1791.634
59.03000 1778.297
59.04000 1769.106
59.05000 1759.947
59.06000 1750.814
59.07000 1741.849
59.08000 1740.510
59.09000 1743.297
59.10000 1745.977
59.11000 1745.834
59.12000 1744.707
59.13000 1743.543
59.14000 1742.005
59.15000 1740.371
59.16000 1739.903
59.17000 1746.670
59.18000 1754.685
59.19000 1761.261
59.20000 1777.378
59.21000 1791.454
59.22000 1797.855
59.23000 1782.544
59.24000 1765.917
59.25000 1758.098
59.26000 1767.544
59.27000 1777.444
59.28000 1783.130
59.29000 1766.138
59.30000 1754.183
59.31000 1752.464
59.32000 1759.826
59.33000 1767.123
59.34000 1770.286
59.35000 1770.970
59.36000 1771.634
59.37000 1784.894
59.38000 1802.403
59.39000 1817.116
59.40000 1799.323
59.41000 1772.224
59.42000 1749.506
59.43000 1757.550
59.44000 1771.543
59.45000 1783.266
59.46000 1776.363
59.47000 1768.698
59.48000 1764.554
59.49000 1771.431
59.50000 1779.106
59.51000 1782.242
59.52000 1775.541
59.53000 1768.500
59.54000 1764.268
59.55000 1791.021
59.56000 1810.254
59.57000 1804.017
59.58000 1772.408
59.59000 1741.045
59.60000 1734.450
59.61000 1744.333
59.62000 1753.983
59.63000 1762.336
59.64000 1769.760
59.65000 1776.538
59.66000 1774.483
59.67000 1769.626
59.68000 1764.171
59.69000 1753.941
59.70000 1742.679
59.71000 1733.059
59.72000 1744.704
59.73000 1757.046
59.74000 1768.096
59.75000 1774.668
59.76000 1780.859
59.77000 1785.641
59.78000 1787.047
59.79000 1788.305
59.80000 1789.094
59.81000 1785.073
59.82000 1782.115
59.83000 1774.894
59.84000 1762.905
59.85000 1750.932
59.86000 1742.655
59.87000 1737.113
59.88000 1731.667
59.89000 1738.530
59.90000 1751.185
59.91000 1763.315
59.92000 1766.905
59.93000 1767.494
59.94000 1768.940
59.95000 1778.206
59.96000 1789.355
59.97000 1799.052
59.98000 1797.684
59.99000 1795.010
60.00000 1790.893
60.01000 1781.226
60.02000 1771.009
60.03000 1769.012
60.04000 1788.808
60.05000 1809.773
60.06000 1823.448
60.07000 1787.255
60.08000 1759.907
60.09000 1755.248
60.10000 1778.978
60.11000 1802.760
60.12000 1811.425
60.13000 1807.610
60.14000 1803.842
60.15000 1801.354
60.16000 1799.629
60.17000 1797.466
60.18000 1786.641
60.19000 1772.451
60.20000 1759.510
60.21000 1759.755
60.22000 1763.530
60.23000 1766.868
60.24000 1765.888
60.25000 1764.370
60.26000 1765.886
60.27000 1780.399
60.28000 1796.392
60.29000 1806.387
60.30000 1798.792
60.31000 1790.058
60.32000 1784.150
60.33000 1787.217
60.34000 1789.697
60.35000 1792.624
60.36000 1796.174
60.37000 1799.728
60.38000 1803.095
60.39000 1806.290
60.40000 1809.459
60.41000 1814.427
60.42000 1820.404
60.43000 1825.868
60.44000 1818.751
60.45000 1806.232
60.46000 1795.391
60.47000 1805.194
60.48000 1821.130
60.49000 1835.443
60.50000 1820.128
60.51000 1801.507
60.52000 1783.357
60.53000 1767.456
60.54000 1751.847
60.55000 1742.347
60.56000 1752.681
60.57000 1764.538
60.58000 1772.837
60.59000 1777.269
60.60000 1780.510
60.61000 1787.182
60.62000 1799.172
60.63000 1811.223
60.64000 1819.169
60.65000 1822.850
60.66000 1826.513
60.67000 1816.397
60.68000 1796.987
60.69000 1777.825
60.70000 1766.420
60.71000 1758.701
60.72000 1752.796
60.73000 1773.246
60.74000 1802.369
60.75000 1828.902
60.76000 1834.120
60.77000 1834.498
60.78000 1831.574
60.79000 1811.007
60.80000 1787.833
60.81000 1771.240
60.82000 1778.337
60.83000 1787.564
60.84000 1794.230
60.85000 1792.576
60.86000 1791.008
60.87000 1791.696
60.88000 1796.265
60.89000 1800.901
60.90000 1800.112
60.91000 1793.003
60.92000 1785.901
60.93000 1782.822
60.94000 1782.835
60.95000 1782.743
60.96000 1778.306
60.97000 1771.587
60.98000 1765.864
60.99000 1777.499
61.00000 1795.454
61.01000 1812.028
61.02000 1813.495
61.03000 1811.419
61.04000 1812.179
61.05000 1829.952
61.06000 1850.563
61.07000 1862.922
61.08000 1842.286
61.09000 1818.213
61.10000 1800.302
61.11000 1804.035
61.12000 1807.906
61.13000 1809.094
61.14000 1805.170
61.15000 1801.123
61.16000 1798.427
61.17000 1797.490
61.18000 1796.562
61.19000 1790.222
61.20000 1779.256
61.21000 1768.527
61.22000 1771.485
61.23000 1782.410
61.24000 1792.481
61.25000 1784.401
61.26000 1769.010
61.27000 1754.632
61.28000 1770.775
61.29000 1793.118
61.30000 1813.026
61.31000 1816.448
61.32000 1816.781
61.33000 1817.164
61.34000 1817.761
61.35000 1818.385
61.36000 1818.862
61.37000 1797.191
61.38000 1778.891
61.39000 1774.958
61.40000 1801.290
61.41000 1828.591
61.42000 1845.101
61.43000 1845.979
61.44000 1846.729
61.45000 1837.489
61.46000 1818.626
61.47000 1799.923
61.48000 1795.139
61.49000 1799.342
61.50000 1803.752
61.51000 1813.687
61.52000 1826.081
61.53000 1837.788
61.54000 1829.201
61.55000 1815.579
61.56000 1804.279
61.57000 1810.833
61.58000 1821.128
61.59000 1831.472
61.60000 1842.062
61.61000 1852.685
61.62000 1861.020
61.63000 1847.696
61.64000 1835.630
61.65000 1828.993
61.66000 1835.002
61.67000 1841.527
61.68000 1849.270
61.69000 1858.969
61.70000 1868.695
61.71000 1873.752
61.72000 1876.293
61.73000 1877.925
61.74000 1866.793
61.75000 1846.503
61.76000 1826.752
61.77000 1825.530
61.78000 1833.431
61.79000 1840.969
61.80000 1830.422
61.81000 1814.904
61.82000 1800.987
61.83000 1801.132
61.84000 1804.562
61.85000 1807.401
61.86000 1806.951
61.87000 1805.993
61.88000 1805.223
61.89000 1838.365
61.90000 1867.839
61.91000 1879.959
61.92000 1847.383
61.93000 1812.542
61.94000 1795.140
61.95000 1808.839
61.96000 1823.148
61.97000 1830.997
61.98000 1820.056
61.99000 1812.535
62.00000 1816.583
62.01000 1829.885
62.02000 1843.135
62.03000 1853.969
62.04000 1863.486
62.05000 1872.647
62.06000 1867.667
62.07000 1857.986
62.08000 1848.302
62.09000 1838.584
62.10000 1828.858
62.11000 1821.417
62.12000 1828.296
62.13000 1837.665
62.14000 1845.363
62.15000 1830.200
62.16000 1815.687
62.17000 1807.674
62.18000 1818.177
62.19000 1829.818
62.20000 1835.706
62.21000 1830.235
62.22000 1824.458
62.23000 1821.130
62.24000 1835.937
62.25000 1846.364
62.26000 1846.037
62.27000 1836.091
62.28000 1826.314
62.29000 1827.841
62.30000 1836.194
62.31000 1844.298
62.32000 1842.521
62.33000 1836.927
62.34000 1830.871
62.35000 1819.391
62.36000 1806.348
62.37000 1795.974
62.38000 1804.513
62.39000 1816.739
62.40000 1826.997
62.41000 1820.240
62.42000 1812.841
62.43000 1810.059
62.44000 1821.839
62.45000 1834.686
62.46000 1839.901
62.47000 1828.449
62.48000 1816.412
62.49000 1809.154
62.50000 1830.942
62.51000 1846.657
62.52000 1848.361
62.53000 1835.992
62.54000 1823.788
62.55000 1829.007
62.56000 1845.904
62.57000 1862.413
62.58000 1841.112
62.59000 1804.004
62.60000 1771.154
62.61000 1797.198
62.62000 1842.065
62.63000 1882.326
62.64000 1885.478
62.65000 1880.543
62.66000 1876.323
62.67000 1860.666
62.68000 1846.090
62.69000 1834.883
62.70000 1835.453
62.71000 1837.036
62.72000 1838.999
62.73000 1841.876
62.74000 1844.794
62.75000 1846.629
62.76000 1852.144
62.77000 1856.174
62.78000 1850.806
62.79000 1834.839
62.80000 1818.942
62.81000 1818.363
62.82000 1829.206
62.83000 1839.863
62.84000 1844.303
62.85000 1845.526
62.86000 1846.902
62.87000 1850.824
62.88000 1855.645
62.89000 1858.741
62.90000 1845.913
62.91000 1829.219
62.92000 1814.682
62.93000 1819.505
62.94000 1826.288
62.95000 1833.786
62.96000 1844.058
62.97000 1854.607
62.98000 1859.754
62.99000 1850.477
63.00000 1840.415
63.01000 1833.834
63.02000 1828.671
63.03000 1824.902
63.04000 1822.815
63.05000 1822.850
63.06000 1822.895
63.07000 1824.988
63.08000 1828.783
63.09000 1832.533
63.10000 1836.988
63.11000 1841.720
63.12000 1846.277
63.13000 1847.317
63.14000 1846.982
63.15000 1847.087
63.16000 1851.892
63.17000 1857.966
63.18000 1863.344
63.19000 1852.589
63.20000 1840.758
63.21000 1832.339
63.22000 1838.646
63.23000 1846.649
63.24000 1857.077
63.25000 1874.675
63.26000 1892.742
63.27000 1904.995
63.28000 1888.076
63.29000 1874.813
63.30000 1864.501
63.31000 1858.334
63.32000 1852.200
63.33000 1860.488
63.34000 1882.215
63.35000 1903.770
63.36000 1901.560
63.37000 1884.756
63.38000 1868.762
63.39000 1872.941
63.40000 1885.847
63.41000 1896.854
63.42000 1884.231
63.43000 1864.536
63.44000 1846.828
63.45000 1850.676
63.46000 1857.877
63.47000 1864.680
63.48000 1869.563
63.49000 1874.193
63.50000 1877.925
63.51000 1878.718
63.52000 1879.282
63.53000 1879.677
63.54000 1882.650
63.55000 1884.974
63.56000 1879.495
63.57000 1861.829
63.58000 1844.019
63.59000 1840.801
63.60000 1852.871
63.61000 1864.887
63.62000 1881.597
63.63000 1901.356
63.64000 1920.293
63.65000 1913.062
63.66000 1893.311
63.67000 1874.385
63.68000 1867.577
63.69000 1864.787
63.70000 1862.243
63.71000 1871.145
63.72000 1881.336
63.73000 1890.130
63.74000 1891.396
63.75000 1891.539
63.76000 1891.997
63.77000 1893.595
63.78000 1895.297
63.79000 1896.530
63.80000 1875.084
63.81000 1857.786
63.82000 1852.015
63.83000 1866.206
63.84000 1880.751
63.85000 1884.757
63.86000 1876.388
63.87000 1868.019
63.88000 1881.189
63.89000 1910.889
63.90000 1940.057
63.91000 1946.670
63.92000 1941.342
63.93000 1935.568
63.94000 1921.926
63.95000 1905.398
63.96000 1890.127
63.97000 1889.515
63.98000 1892.283
63.99000 1895.211
64.00000 1899.110
64.01000 1903.171
64.02000 1909.641
64.03000 1925.812
64.04000 1943.003
64.05000 1955.820
64.06000 1952.285
64.07000 1948.790
64.08000 1943.101
64.09000 1933.201
64.10000 1923.197
64.11000 1921.731
64.12000 1931.461
64.13000 1941.233
64.14000 1946.800
64.15000 1948.720
64.16000 1950.476
64.17000 1942.480
64.18000 1928.765
64.19000 1916.667
64.20000 1939.508
64.21000 1976.518
64.22000 2011.125
64.23000 2013.861
64.24000 2008.241
64.25000 2003.430
64.26000 2004.148
64.27000 2005.909
64.28000 2005.688
64.29000 1996.574
64.30000 1986.386
64.31000 1978.579
64.32000 2012.764
64.33000 2042.070
64.34000 2060.070
64.35000 2054.078
64.36000 2047.304
64.37000 2050.249
64.38000 2067.380
64.39000 2084.631
64.40000 2087.909
64.41000 2077.615
64.42000 2067.520
64.43000 2075.594
64.44000 2095.487
64.45000 2115.177
64.46000 2129.365
64.47000 2141.086
64.48000 2152.166
64.49000 2154.532
64.50000 2154.220
64.51000 2154.985
64.52000 2164.107
64.53000 2174.994
64.54000 2184.249
64.55000 2185.332
64.56000 2185.291
64.57000 2185.258
64.58000 2177.501
64.59000 2170.782
64.60000 2168.461
64.61000 2176.458
64.62000 2184.884
64.63000 2180.607
64.64000 2155.742
64.65000 2130.593
64.66000 2117.464
64.67000 2101.677
64.68000 2091.047
64.69000 2088.152
64.70000 2090.851
64.71000 2093.803
64.72000 2105.623
64.73000 2121.841
64.74000 2137.324
64.75000 2143.458
64.76000 2146.170
64.77000 2146.880
64.78000 2129.836
64.79000 2108.611
64.80000 2088.721
64.81000 2076.326
64.82000 2065.098
64.83000 2056.060
64.84000 2046.439
64.85000 2038.588
64.86000 2035.140
64.87000 2043.117
64.88000 2051.681
64.89000 2052.827
64.90000 2040.645
64.91000 2028.195
64.92000 2021.341
64.93000 2012.110
64.94000 2005.753
64.95000 2001.145
64.96000 1997.949
64.97000 1994.565
64.98000 1982.272
64.99000 1965.089
65.00000 1948.540
65.01000 1939.416
65.02000 1933.500
65.03000 1928.229
65.04000 1929.556
65.05000 1932.611
65.06000 1937.546
65.07000 1954.363
65.08000 1973.264
65.09000 1988.819
65.10000 1962.935
65.11000 1937.881
65.12000 1922.069
65.13000 1932.775
65.14000 1945.133
65.15000 1947.123
65.16000 1928.495
65.17000 1909.302
65.18000 1898.205
65.19000 1917.880
65.20000 1931.786
65.21000 1930.792
65.22000 1916.362
65.23000 1902.189
65.24000 1905.587
65.25000 1919.675
65.26000 1933.350
65.27000 1929.546
65.28000 1918.964
65.29000 1909.159
65.30000 1908.596
65.31000 1910.719
65.32000 1912.942
65.33000 1915.887
65.34000 1918.973
65.35000 1921.566
65.36000 1922.192
65.37000 1922.505
65.38000 1926.738
65.39000 1943.419
65.40000 1961.022
65.41000 1964.156
65.42000 1935.460
65.43000 1905.628
65.44000 1887.581
65.45000 1889.893
65.46000 1891.691
65.47000 1884.176
65.48000 1867.226
65.49000 1850.547
65.50000 1863.364
65.51000 1896.101
65.52000 1928.099
65.53000 1931.314
65.54000 1921.572
65.55000 1913.583
65.56000 1930.123
65.57000 1954.562
65.58000 1975.731
65.59000 1970.311
65.60000 1959.052
65.61000 1949.410
65.62000 1943.554
65.63000 1939.071
65.64000 1940.079
65.65000 1960.416
65.66000 1982.435
65.67000 1997.609
65.68000 1996.133
65.69000 1993.908
65.70000 1992.504
65.71000 2018.812
65.72000 2038.182
65.73000 2049.995
65.74000 2053.213
65.75000 2056.435
65.76000 2062.367
65.77000 2070.335
65.78000 2078.170
65.79000 2087.579
65.80000 2097.464
65.81000 2106.608
65.82000 2103.379
65.83000 2095.742
65.84000 2089.144
65.85000 2092.231
65.86000 2097.687
65.87000 2102.445
65.88000 2073.693
65.89000 2044.459
65.90000 2018.911
65.91000 2007.767
65.92000 1998.078
65.93000 1983.643
65.94000 1956.443
65.95000 1928.537
65.96000 1910.237
65.97000 1905.365
65.98000 1902.006
65.99000 1907.734
66.00000 1925.010
66.01000 1942.305
66.02000 1947.770
66.03000 1943.312
66.04000 1938.907
66.05000 1943.728
66.06000 1953.555
66.07000 1962.454
66.08000 1952.483
66.09000 1935.075
66.10000 1918.923
66.11000 1916.311
66.12000 1917.380
66.13000 1918.327
66.14000 1916.806
66.15000 1915.099
66.16000 1914.447
66.17000 1918.376
66.18000 1922.839
66.19000 1924.867
66.20000 1919.652
66.21000 1913.955
66.22000 1910.082
66.23000 1907.224
66.24000 1905.113
66.25000 1907.271
66.26000 1915.473
66.27000 1923.718
66.28000 1930.078
66.29000 1934.665
66.30000 1939.218
66.31000 1947.569
66.32000 1958.135
66.33000 1968.347
66.34000 1969.570
66.35000 1966.875
66.36000 1963.957
66.37000 1958.224
66.38000 1951.643
66.39000 1945.720
66.40000 1930.975
66.41000 1916.468
66.42000 1906.056
66.43000 1915.510
66.44000 1927.599
66.45000 1934.896
66.46000 1926.401
66.47000 1916.664
66.48000 1909.818
66.49000 1914.617
66.50000 1918.596
66.51000 1925.734
66.52000 1937.842
66.53000 1950.010
66.54000 1948.301
66.55000 1931.931
66.56000 1915.631
66.57000 1909.670
66.58000 1910.947
66.59000 1912.465
66.60000 1921.806
66.61000 1934.918
66.62000 1947.305
66.63000 1948.911
66.64000 1946.917
66.65000 1945.096
66.66000 1934.545
66.67000 1923.413
66.68000 1912.576
66.69000 1903.337
66.70000 1894.340
66.71000 1892.948
66.72000 1919.351
66.73000 1948.309
66.74000 1969.319
66.75000 1956.120
66.76000 1944.700
66.77000 1939.498
66.78000 1945.143
66.79000 1950.986
66.80000 1960.647
66.81000 1974.830
66.82000 1988.991
66.83000 1993.485
66.84000 1990.443
66.85000 1987.032
66.86000 1967.632
66.87000 1939.705
66.88000 1913.832
66.89000 1924.695
66.90000 1949.130
66.91000 1971.727
66.92000 1957.687
66.93000 1936.717
66.94000 1919.544
66.95000 1925.554
66.96000 1935.495
66.97000 1945.703
66.98000 1956.995
66.99000 1968.403
67.00000 1976.925
67.01000 1962.536
67.02000 1950.265
67.03000 1945.406
67.04000 1954.866
67.05000 1964.688
67.06000 1971.244
67.07000 1973.485
67.08000 1975.704
67.09000 1976.255
67.10000 1975.350
67.11000 1974.478
67.12000 1975.586
67.13000 1977.865
67.14000 1979.863
67.15000 1975.705
67.16000 1969.031
67.17000 1962.787
67.18000 1980.933
67.19000 2003.677
67.20000 2020.665
67.21000 1997.966
67.22000 1967.712
67.23000 1944.087
67.24000 1950.435
67.25000 1960.437
67.26000 1968.114
67.27000 1966.674
67.28000 1965.026
67.29000 1963.398
67.30000 1961.815
67.31000 1960.233
67.32000 1963.302
67.33000 1973.210
67.34000 1983.179
67.35000 1993.966
67.36000 2005.554
67.37000 2016.995
67.38000 2014.635
67.39000 2003.229
67.40000 1992.080
67.41000 1987.996
67.42000 1987.104
67.43000 1986.260
67.44000 1997.927
67.45000 2012.250
67.46000 2022.539
67.47000 2001.230
67.48000 1973.196
67.49000 1948.921
67.50000 1943.630
67.51000 1940.975
67.52000 1938.883
67.53000 1963.598
67.54000 1985.188
67.55000 1998.328
67.56000 1991.493
67.57000 1983.814
67.58000 1979.235
67.59000 1979.716
67.60000 1980.270
67.61000 1980.560
67.62000 1972.813
67.63000 1967.580
67.64000 1965.299
67.65000 1965.168
67.66000 1965.307
67.67000 1975.125
67.68000 1989.777
67.69000 2003.775
67.70000 1996.965
67.71000 1983.938
67.72000 1971.736
67.73000 1966.932
67.74000 1963.882
67.75000 1961.726
67.76000 1964.627
67.77000 1968.323
67.78000 1971.303
67.79000 1984.714
67.80000 1996.426
67.81000 2000.891
67.82000 1986.417
67.83000 1970.954
67.84000 1968.240
67.85000 1988.594
67.86000 2009.423
67.87000 2020.933
67.88000 2006.462
67.89000 1996.449
67.90000 1992.377
67.91000 1993.132
67.92000 1993.845
67.93000 1992.552
67.94000 1990.150
67.95000 1987.834
67.96000 1993.650
67.97000 2002.042
67.98000 2009.977
67.99000 2013.209
68.00000 2015.200
68.01000 2017.016
68.02000 2017.721
68.03000 2018.230
68.04000 2018.650
68.05000 2006.945
68.06000 1996.196
68.07000 1987.092
68.08000 1982.738
68.09000 1978.684
68.10000 1982.189
68.11000 2000.832
68.12000 2019.899
68.13000 2030.961
68.14000 2007.774
68.15000 1991.366
68.16000 1990.974
68.17000 2005.146
68.18000 2019.141
68.19000 2020.727
68.20000 2014.705
68.21000 2008.857
68.22000 2025.893
68.23000 2051.272
68.24000 2075.188
68.25000 2081.524
68.26000 2082.713
68.27000 2083.188
68.28000 2078.520
68.29000 2072.832
68.30000 2068.047
68.31000 2060.348
68.32000 2053.618
68.33000 2047.418
68.34000 2042.914
68.35000 2038.538
68.36000 2034.900
68.37000 2032.899
68.38000 2030.958
68.39000 2029.779
68.40000 2046.090
68.41000 2057.860
68.42000 2061.386
68.43000 2056.490
68.44000 2051.716
68.45000 2060.865
68.46000 2079.491
68.47000 2097.705
68.48000 2108.924
68.49000 2116.541
68.50000 2122.914
68.51000 2111.643
68.52000 2094.651
68.53000 2080.517
68.54000 2089.857
68.55000 2104.393
68.56000 2116.859
68.57000 2126.645
68.58000 2134.583
68.59000 2143.063
68.60000 2153.467
68.61000 2164.039
68.62000 2174.189
68.63000 2183.302
68.64000 2192.369
68.65000 2198.104
68.66000 2218.667
68.67000 2233.749
68.68000 2248.996
68.69000 2264.431
68.70000 2279.867
68.71000 2295.629
68.72000 2311.638
68.73000 2327.386
68.74000 2341.190
68.75000 2353.575
68.76000 2365.694
68.77000 2373.308
68.78000 2379.303
68.79000 2388.226
68.80000 2424.703
68.81000 2467.973
68.82000 2505.744
68.83000 2551.630
68.84000 2592.029
68.85000 2639.520
68.86000 2714.948
68.87000 2793.227
68.88000 2912.483
68.89000 3142.740
68.90000 3379.210
68.91000 3534.701
68.92000 4756.103
68.93000 5673.474
68.94000 6905.089
68.95000 8539.246
68.96000 10174.605
68.97000 11638.415
68.98000 12957.186
68.99000 14260.910
69.00000 15027.645
69.01000 15475.394
69.02000 15903.462
69.03000 15925.183
69.04000 15785.604
69.05000 15641.132
69.06000 15443.373
69.07000 15231.020
69.08000 15042.573
69.09000 14971.922
69.10000 14929.508
69.11000 14929.115
69.12000 15112.911
69.13000 15318.321
69.14000 15460.804
69.15000 15414.671
69.16000 15355.855
69.17000 15315.768
69.18000 14307.652
69.19000 13531.900
69.20000 12730.155
69.21000 11891.323
69.22000 11052.241
69.23000 10383.387
69.24000 9875.813
69.25000 9371.982
69.26000 9067.827
69.27000 8893.604
69.28000 8719.337
69.29000 8543.962
69.30000 8368.101
69.31000 8190.253
69.32000 7987.123
69.33000 7776.313
69.34000 7586.369
69.35000 7096.799
69.36000 6613.063
69.37000 6104.106
69.38000 5471.791
69.39000 4822.963
69.40000 4218.769
69.41000 3762.732
69.42000 3318.481
69.43000 3005.377
69.44000 2773.223
69.45000 2599.586
69.46000 2476.425
69.47000 2433.269
69.48000 2391.121
69.49000 2350.938
69.50000 2312.847
69.51000 2274.917
69.52000 2246.598
69.53000 2225.289
69.54000 2204.582
69.55000 2203.818
69.56000 2212.733
69.57000 2220.528
69.58000 2211.417
69.59000 2196.620
69.60000 2183.099
69.61000 2173.535
69.62000 2165.850
69.63000 2158.583
69.64000 2153.607
69.65000 2148.979
69.66000 2140.955
69.67000 2120.426
69.68000 2098.735
69.69000 2082.963
69.70000 2103.987
69.71000 2121.555
69.72000 2129.607
69.73000 2120.932
69.74000 2111.944
69.75000 2105.463
69.76000 2101.972
69.77000 2098.494
69.78000 2097.059
69.79000 2097.231
69.80000 2097.484
69.81000 2101.307
69.82000 2107.048
69.83000 2111.374
69.84000 2090.034
69.85000 2059.145
69.86000 2030.553
69.87000 2037.639
69.88000 2052.219
69.89000 2064.115
69.90000 2059.476
69.91000 2052.010
69.92000 2047.783
69.93000 2056.806
69.94000 2067.251
69.95000 2075.071
69.96000 2057.140
69.97000 2041.947
69.98000 2030.223
69.99000 2025.250
70.00000 2020.451
